freq (GHz),S11_real,S11_imag,S21_real,S21_imag,S12_real,S12_imag,S22_real,S22_imag
100000000.0,0.000166642525427,-0.000373881658427,0.999830050388,-0.00102267615512,0.999830050388,-0.00102267615512,0.000166642525426,-0.000373881658427
200000000.0,0.000165962521497,-0.000747776193209,0.999826472668,-0.00204537253304,0.999826472668,-0.00204537253304,0.000165962521497,-0.000747776193209
300000000.0,0.000164223660952,-0.00112168892956,0.99982200291,-0.00306810086463,0.99982200291,-0.00306810086463,0.000164223660952,-0.00112168892956
400000000.0,0.000161571234891,-0.00149562374859,0.99981649549,-0.00409086948572,0.99981649549,-0.00409086948572,0.000161571234891,-0.00149562374859
500000000.0,0.000158060957535,-0.00186958368248,0.999809894303,-0.00511368511715,0.999809894303,-0.00511368511715,0.000158060957535,-0.00186958368248
600000000.0,0.000153721074563,-0.00224357117792,0.999802170661,-0.00613655343692,0.999802170661,-0.00613655343692,0.000153721074563,-0.00224357117792
700000000.0,0.000148568136666,-0.00261758823928,0.999793307528,-0.00715947936564,0.999793307528,-0.00715947936564,0.000148568136667,-0.00261758823928
800000000.0,0.000142612751746,-0.00299163651766,0.999783293773,-0.00818246723559,0.999783293773,-0.00818246723559,0.000142612751746,-0.00299163651766
900000000.0,0.000135862144311,-0.0033657173706,0.999772121614,-0.00920552090107,0.999772121614,-0.00920552090107,0.000135862144312,-0.0033657173706
1000000000.0,0.000128321452226,-0.0037398319055,0.999759785323,-0.0102286438163,0.999759785323,-0.0102286438163,0.000128321452226,-0.0037398319055
1100000000.0,0.000119994447243,-0.00411398101163,0.999746280512,-0.0112518390922,0.999746280512,-0.0112518390922,0.000119994447243,-0.00411398101163
1200000000.0,0.000110883964354,-0.00448816538542,0.999731603705,-0.0122751095403,0.999731603705,-0.0122751095403,0.000110883964354,-0.00448816538542
1300000000.0,0.000100992171941,-0.00486238555036,0.999715752069,-0.0132984577069,0.999715752069,-0.0132984577069,0.000100992171941,-0.00486238555036
1400000000.0,9.03207494349e-05,-0.00523664187338,0.999698723239,-0.0143218859008,0.999698723239,-0.0143218859008,9.03207494347e-05,-0.00523664187338
1500000000.0,7.88710084634e-05,-0.00561093457847,0.999680515202,-0.0153453962162,0.999680515202,-0.0153453962162,7.88710084634e-05,-0.00561093457847
1600000000.0,6.66439780472e-05,-0.00598526375801,0.999661126206,-0.0163689905515,0.999661126206,-0.0163689905515,6.6643978047e-05,-0.00598526375801
1700000000.0,5.36404660811e-05,-0.0063596293827,0.999640554709,-0.0173926706258,0.999640554709,-0.0173926706258,5.36404660809e-05,-0.0063596293827
1800000000.0,3.98611047396e-05,-0.00673403131,0.99961879933,-0.0184164379921,0.99961879933,-0.0184164379921,3.98611047396e-05,-0.00673403131
1900000000.0,2.53063846656e-05,-0.00710846929159,0.999595858815,-0.01944029405,0.999595858815,-0.01944029405,2.53063846656e-05,-0.00710846929159
2000000000.0,9.97668117408e-06,-0.00748294297979,0.999571732017,-0.0204642400557,0.999571732017,-0.0204642400557,9.97668117408e-06,-0.00748294297979
2100000000.0,-6.12772535069e-06,-0.00785745193365,0.999546417872,-0.0214882771314,0.999546417872,-0.0214882771314,-6.12772535058e-06,-0.00785745193365
2200000000.0,-2.30066333453e-05,-0.00823199562392,0.999519915388,-0.0225124062738,0.999519915388,-0.0225124062738,-2.30066333449e-05,-0.00823199562392
2300000000.0,-4.06599071919e-05,-0.0086065734379,0.999492223631,-0.023536628361,0.999492223631,-0.023536628361,-4.0659907192e-05,-0.0086065734379
2400000000.0,-5.90874668015e-05,-0.00898118468367,0.999463341713,-0.0245609441595,0.999463341713,-0.0245609441595,-5.90874668015e-05,-0.00898118468367
2500000000.0,-7.82892790936e-05,-0.00935582859402,0.999433268792,-0.0255853543301,0.999433268792,-0.0255853543301,-7.82892790936e-05,-0.00935582859402
2600000000.0,-9.82653509652e-05,-0.00973050432992,0.999402004057,-0.0266098594333,0.999402004057,-0.0266098594333,-9.82653509652e-05,-0.00973050432992
2700000000.0,-0.000119015723437,-0.0101052109839,0.99936954673,-0.0276344599344,0.99936954673,-0.0276344599344,-0.000119015723438,-0.0101052109839
2800000000.0,-0.000140540466728,-0.0104799475831,0.999335896059,-0.0286591562081,0.999335896059,-0.0286591562081,-0.000140540466729,-0.0104799475831
2900000000.0,-0.000162839676095,-0.010854713092,0.999301051312,-0.0296839485424,0.999301051312,-0.0296839485424,-0.000162839676095,-0.010854713092
3000000000.0,-0.000185913468273,-0.011229506415,0.999265011781,-0.030708837143,0.999265011781,-0.030708837143,-0.000185913468273,-0.011229506415
3100000000.0,-0.000209761978431,-0.0116043263988,0.999227776772,-0.0317338221367,0.999227776772,-0.0317338221367,-0.000209761978431,-0.0116043263988
3200000000.0,-0.000234385357532,-0.011979171835,0.999189345609,-0.0327589035743,0.999189345609,-0.0327589035743,-0.000234385357532,-0.011979171835
3300000000.0,-0.000259783770043,-0.012354041462,0.999149717629,-0.0337840814346,0.999149717629,-0.0337840814346,-0.000259783770043,-0.012354041462
3400000000.0,-0.00028595739193,-0.0127289339668,0.999108892182,-0.0348093556268,0.999108892182,-0.0348093556268,-0.00028595739193,-0.0127289339668
3500000000.0,-0.000312906408897,-0.0131038479873,0.99906686863,-0.035834725993,0.99906686863,-0.035834725993,-0.000312906408897,-0.0131038479873
3600000000.0,-0.000340631014831,-0.0134787821138,0.999023646343,-0.0368601923116,0.999023646343,-0.0368601923116,-0.000340631014831,-0.0134787821138
3700000000.0,-0.000369131410417,-0.0138537348908,0.998979224705,-0.0378857542989,0.998979224705,-0.0378857542989,-0.000369131410417,-0.0138537348908
3800000000.0,-0.000398407801907,-0.0142287048186,0.998933603104,-0.0389114116117,0.998933603104,-0.0389114116117,-0.000398407801907,-0.0142287048186
3900000000.0,-0.000428460400023,-0.0146036903548,0.998886780941,-0.0399371638496,0.998886780941,-0.0399371638496,-0.000428460400023,-0.0146036903548
4000000000.0,-0.000459289418951,-0.0149786899156,0.998838757621,-0.040963010557,0.998838757621,-0.040963010557,-0.000459289418951,-0.0149786899156
4100000000.0,-0.000490895075458,-0.0153537018775,0.99878953256,-0.0419889512247,0.99878953256,-0.0419889512247,-0.000490895075458,-0.0153537018775
4200000000.0,-0.000523277588074,-0.0157287245783,0.998739105177,-0.0430149852923,0.998739105177,-0.0430149852923,-0.000523277588074,-0.0157287245783
4300000000.0,-0.000556437176355,-0.0161037563184,0.998687474902,-0.0440411121493,0.998687474902,-0.0440411121493,-0.000556437176355,-0.0161037563184
4400000000.0,-0.000590374060208,-0.0164787953621,0.998634641169,-0.0450673311373,0.998634641169,-0.0450673311373,-0.000590374060208,-0.0164787953621
4500000000.0,-0.000625088459279,-0.0168538399389,0.998580603419,-0.0460936415515,0.998580603419,-0.0460936415515,-0.000625088459279,-0.0168538399389
4600000000.0,-0.000660580592383,-0.0172288882442,0.998525361098,-0.047120042642,0.998525361098,-0.047120042642,-0.000660580592383,-0.0172288882442
4700000000.0,-0.000696850676983,-0.0176039384404,0.998468913661,-0.0481465336152,0.998468913661,-0.0481465336152,-0.000696850676983,-0.0176039384404
4800000000.0,-0.000733898928715,-0.0179789886583,0.998411260565,-0.0491731136355,0.998411260565,-0.0491731136355,-0.000733898928716,-0.0179789886583
4900000000.0,-0.00077172556094,-0.0183540369977,0.998352401275,-0.0501997818264,0.998352401275,-0.0501997818264,-0.00077172556094,-0.0183540369977
5000000000.0,-0.000810330784329,-0.0187290815286,0.998292335263,-0.051226537272,0.998292335263,-0.051226537272,-0.000810330784329,-0.0187290815286
5100000000.0,-0.000849714806486,-0.0191041202916,0.998231062004,-0.0522533790177,0.998231062004,-0.0522533790177,-0.000849714806486,-0.0191041202916
5200000000.0,-0.000889877831585,-0.0194791512995,0.99816858098,-0.053280306072,0.99816858098,-0.053280306072,-0.000889877831585,-0.0194791512995
5300000000.0,-0.00093082006004,-0.0198541725373,0.998104891678,-0.0543073174072,0.998104891678,-0.0543073174072,-0.00093082006004,-0.0198541725373
5400000000.0,-0.000972541688197,-0.020229181964,0.998039993591,-0.0553344119605,0.998039993591,-0.0553344119605,-0.000972541688197,-0.020229181964
5500000000.0,-0.00101504290803,-0.0206041775122,0.997973886218,-0.0563615886354,0.997973886218,-0.0563615886354,-0.00101504290803,-0.0206041775122
5600000000.0,-0.00105832390689,-0.0209791570898,0.997906569063,-0.0573888463021,0.997906569063,-0.0573888463021,-0.00105832390689,-0.0209791570898
5700000000.0,-0.00110238486722,-0.0213541185804,0.997838041635,-0.0584161837992,0.997838041635,-0.0584161837992,-0.00110238486722,-0.0213541185804
5800000000.0,-0.00114722596633,-0.0217290598439,0.997768303449,-0.0594435999339,0.997768303449,-0.0594435999339,-0.00114722596633,-0.0217290598439
5900000000.0,-0.00119284737616,-0.0221039787171,0.997697354027,-0.0604710934833,0.997697354027,-0.0604710934833,-0.00119284737616,-0.0221039787171
6000000000.0,-0.00123924926308,-0.0224788730146,0.997625192895,-0.0614986631953,0.997625192895,-0.0614986631953,-0.00123924926308,-0.0224788730146
6100000000.0,-0.00128643178766,-0.0228537405295,0.997551819585,-0.0625263077892,0.997551819585,-0.0625263077892,-0.00128643178766,-0.0228537405295
6200000000.0,-0.00133439510451,-0.0232285790337,0.997477233634,-0.0635540259567,0.997477233634,-0.0635540259567,-0.00133439510451,-0.0232285790337
6300000000.0,-0.00138313936207,-0.0236033862785,0.997401434587,-0.0645818163625,0.997401434587,-0.0645818163625,-0.00138313936207,-0.0236033862785
6400000000.0,-0.00143266470244,-0.0239781599956,0.997324421993,-0.0656096776452,0.997324421993,-0.0656096776452,-0.00143266470244,-0.0239781599956
6500000000.0,-0.00148297126124,-0.0243528978972,0.997246195407,-0.0666376084181,0.997246195407,-0.0666376084181,-0.00148297126124,-0.0243528978972
6600000000.0,-0.00153405916742,-0.0247275976767,0.99716675439,-0.0676656072696,0.99716675439,-0.0676656072696,-0.00153405916742,-0.0247275976767
6700000000.0,-0.00158592854314,-0.0251022570092,0.997086098508,-0.0686936727642,0.997086098508,-0.0686936727642,-0.00158592854314,-0.0251022570092
6800000000.0,-0.0016385795036,-0.0254768735523,0.997004227335,-0.069721803443,0.997004227335,-0.069721803443,-0.0016385795036,-0.0254768735523
6900000000.0,-0.00169201215693,-0.0258514449462,0.996921140449,-0.0707499978243,0.996921140449,-0.0707499978243,-0.00169201215693,-0.0258514449462
7000000000.0,-0.00174622660407,-0.0262259688141,0.996836837435,-0.0717782544046,0.996836837435,-0.0717782544046,-0.00174622660407,-0.0262259688141
7100000000.0,-0.00180122293861,-0.0266004427634,0.996751317885,-0.0728065716585,0.996751317885,-0.0728065716585,-0.00180122293861,-0.0266004427634
7200000000.0,-0.0018570012467,-0.0269748643851,0.996664581393,-0.0738349480399,0.996664581393,-0.0738349480399,-0.0018570012467,-0.0269748643851
7300000000.0,-0.00191356160693,-0.0273492312553,0.996576627565,-0.0748633819824,0.996576627565,-0.0748633819824,-0.00191356160693,-0.0273492312553
7400000000.0,-0.00197090409023,-0.0277235409347,0.996487456009,-0.0758918718997,0.996487456009,-0.0758918718997,-0.00197090409023,-0.0277235409347
7500000000.0,-0.00202902875978,-0.0280977909698,0.99639706634,-0.0769204161864,0.99639706634,-0.0769204161864,-0.00202902875978,-0.0280977909698
7600000000.0,-0.00208793567088,-0.0284719788928,0.996305458181,-0.0779490132181,0.996305458181,-0.0779490132181,-0.00208793567088,-0.0284719788928
7700000000.0,-0.00214762487088,-0.0288461022222,0.996212631158,-0.0789776613526,0.996212631158,-0.0789776613526,-0.00214762487088,-0.0288461022222
7800000000.0,-0.00220809639908,-0.0292201584631,0.996118584908,-0.0800063589295,0.996118584908,-0.0800063589295,-0.00220809639908,-0.0292201584631
7900000000.0,-0.00226935028667,-0.0295941451076,0.996023319069,-0.0810351042716,0.996023319069,-0.0810351042716,-0.00226935028667,-0.0295941451076
8000000000.0,-0.0023313865566,-0.0299680596352,0.99592683329,-0.0820638956845,0.99592683329,-0.0820638956845,-0.0023313865566,-0.0299680596352
8100000000.0,-0.00239420522356,-0.0303418995135,0.995829127225,-0.0830927314578,0.995829127225,-0.0830927314578,-0.00239420522356,-0.0303418995135
8200000000.0,-0.00245780629387,-0.0307156621976,0.995730200532,-0.0841216098651,0.995730200532,-0.0841216098651,-0.00245780629387,-0.0307156621976
8300000000.0,-0.00252218976539,-0.0310893451315,0.99563005288,-0.0851505291645,0.99563005288,-0.0851505291645,-0.00252218976539,-0.0310893451315
8400000000.0,-0.00258735562752,-0.0314629457478,0.99552868394,-0.086179487599,0.99552868394,-0.086179487599,-0.00258735562752,-0.0314629457478
8500000000.0,-0.00265330386107,-0.0318364614684,0.995426093394,-0.0872084833973,0.995426093394,-0.0872084833973,-0.00265330386107,-0.0318364614684
8600000000.0,-0.0027200344382,-0.0322098897043,0.995322280927,-0.0882375147734,0.995322280927,-0.0882375147734,-0.0027200344382,-0.0322098897043
8700000000.0,-0.0027875473224,-0.0325832278564,0.995217246233,-0.0892665799277,0.995217246233,-0.0892665799277,-0.0027875473224,-0.0325832278564
8800000000.0,-0.00285584246841,-0.0329564733158,0.995110989011,-0.0902956770473,0.995110989011,-0.0902956770473,-0.00285584246841,-0.0329564733158
8900000000.0,-0.00292491982216,-0.0333296234636,0.995003508969,-0.091324804306,0.995003508969,-0.091324804306,-0.00292491982216,-0.0333296234636
9000000000.0,-0.00299477932072,-0.0337026756719,0.994894805819,-0.0923539598647,0.994894805819,-0.0923539598647,-0.00299477932072,-0.0337026756719
9100000000.0,-0.00306542089225,-0.0340756273034,0.994784879282,-0.0933831418722,0.994784879282,-0.0933831418722,-0.00306542089225,-0.0340756273034
9200000000.0,-0.00313684445595,-0.0344484757121,0.994673729085,-0.0944123484652,0.994673729085,-0.0944123484652,-0.00313684445596,-0.0344484757121
9300000000.0,-0.00320904992203,-0.0348212182434,0.994561354961,-0.0954415777685,0.994561354961,-0.0954415777685,-0.00320904992203,-0.0348212182434
9400000000.0,-0.00328203719164,-0.0351938522345,0.994447756652,-0.0964708278957,0.994447756652,-0.0964708278957,-0.00328203719164,-0.0351938522345
9500000000.0,-0.00335580615683,-0.0355663750146,0.994332933906,-0.0975000969492,0.994332933906,-0.0975000969492,-0.00335580615683,-0.0355663750146
9600000000.0,-0.00343035670052,-0.0359387839049,0.994216886476,-0.0985293830207,0.994216886476,-0.0985293830207,-0.00343035670052,-0.0359387839049
9700000000.0,-0.00350568869648,-0.0363110762192,0.994099614125,-0.0995586841915,0.994099614125,-0.0995586841915,-0.00350568869648,-0.0363110762192
9800000000.0,-0.00358180200923,-0.0366832492642,0.99398111662,-0.100587998533,0.99398111662,-0.100587998533,-0.00358180200923,-0.0366832492642
9900000000.0,-0.00365869649409,-0.0370553003391,0.993861393739,-0.101617324105,0.993861393739,-0.101617324105,-0.00365869649409,-0.0370553003391
10000000000.0,-0.00373637199706,-0.0374272267368,0.993740445262,-0.10264665896,0.993740445262,-0.10264665896,-0.00373637199706,-0.0374272267368
