freq (GHz),S11_real,S11_imag,S21_real,S21_imag,S12_real,S12_imag,S22_real,S22_imag
100000000.0,0.0226904063667,0.00303775376274,0.977302762265,-0.00563216242035,0.977302762265,-0.00563216242035,0.0226904063667,0.00303775376274
200000000.0,0.0228889407809,0.00607243881152,0.977091612573,-0.0112612620648,0.977091612573,-0.0112612620648,0.0228889407809,0.00607243881152
300000000.0,0.0230831826473,0.00910464415788,0.976877970461,-0.0168878994862,0.976877970461,-0.0168878994862,0.0230831826473,0.00910464415788
400000000.0,0.0232924092405,0.0121342718677,0.976642557552,-0.0225119865698,0.976642557552,-0.0225119865698,0.0232924092405,0.0121342718677
500000000.0,0.0235240277129,0.0151610650856,0.976377965446,-0.0281332754144,0.976377965446,-0.0281332754144,0.0235240277129,0.0151610650856
600000000.0,0.0237817954064,0.0181846971745,0.976080435384,-0.0337514477721,0.976080435384,-0.0337514477721,0.0237817954064,0.0181846971745
700000000.0,0.0240679102109,0.0212048037669,0.975747767873,-0.0393661472517,0.975747767873,-0.0393661472517,0.0240679102109,0.0212048037669
800000000.0,0.0243837736683,0.0242209976776,0.97537855958,-0.0449769943226,0.97537855958,-0.0449769943226,0.0243837736683,0.0242209976776
900000000.0,0.0247303308183,0.0272328769626,0.974971863478,-0.0505835944325,0.974971863478,-0.0505835944325,0.0247303308183,0.0272328769626
1000000000.0,0.0251082424959,0.0302400297357,0.97452701655,-0.0561855428661,0.97452701655,-0.0561855428661,0.0251082424959,0.0302400297357
1100000000.0,0.0255179811316,0.0332420372711,0.974043543982,-0.0617824278775,0.974043543982,-0.0617824278775,0.0255179811316,0.0332420372711
1200000000.0,0.0259598878545,0.0362384761209,0.973521102068,-0.0673738328315,0.973521102068,-0.0673738328315,0.0259598878545,0.0362384761209
1300000000.0,0.0264342084338,0.0392289196315,0.972959442258,-0.072959337737,0.972959442258,-0.072959337737,0.0264342084338,0.0392289196315
1400000000.0,0.0269411169183,0.0422129390725,0.972358387525,-0.0785385203903,0.972358387525,-0.0785385203903,0.0269411169183,0.0422129390725
1500000000.0,0.0274807317597,0.045190104507,0.971717816242,-0.0841109572572,0.971717816242,-0.0841109572572,0.0274807317597,0.045190104507
1600000000.0,0.0280531271509,0.0481599854832,0.971037650837,-0.0896762241737,0.971037650837,-0.0896762241737,0.0280531271509,0.0481599854832
1700000000.0,0.0286583412125,0.0511221515978,0.970317849613,-0.0952338969172,0.970317849613,-0.0952338969172,0.0286583412125,0.0511221515978
1800000000.0,0.0292963820394,0.0540761729664,0.9695584007,-0.100783551684,0.9695584007,-0.100783551684,0.0292963820394,0.0540761729664
1900000000.0,0.0299672322579,0.0570216206244,0.968759317497,-0.106324765494,0.968759317497,-0.106324765494,0.0299672322579,0.0570216206244
2000000000.0,0.0306708525234,0.0599580668739,0.967920635174,-0.111857116546,0.967920635174,-0.111857116546,0.0306708525234,0.0599580668739
2100000000.0,0.0314071842482,0.0628850855905,0.967042407946,-0.117380184524,0.967042407946,-0.117380184524,0.0314071842482,0.0628850855905
2200000000.0,0.0321761517621,0.0658022524961,0.966124706912,-0.122893550876,0.966124706912,-0.122893550876,0.0321761517621,0.0658022524961
2300000000.0,0.0329776640458,0.0687091454067,0.965167618321,-0.128396799064,0.965167618321,-0.128396799064,0.0329776640458,0.0687091454067
2400000000.0,0.0338116161423,0.0716053444582,0.964171242162,-0.133889514795,0.964171242162,-0.133889514795,0.0338116161423,0.0716053444582
2500000000.0,0.0346778903175,0.0744904323145,0.963135691001,-0.139371286227,0.963135691001,-0.139371286227,0.0346778903175,0.0744904323145
2600000000.0,0.0355763570278,0.0773639943611,0.962061089017,-0.144841704166,0.962061089017,-0.144841704166,0.0355763570278,0.0773639943611
2700000000.0,0.0365068757353,0.0802256188859,0.960947571185,-0.150300362251,0.960947571185,-0.150300362251,0.0365068757353,0.0802256188859
2800000000.0,0.0374692956013,0.0830748972491,0.959795282582,-0.155746857124,0.959795282582,-0.155746857124,0.0374692956013,0.0830748972491
2900000000.0,0.0384634560844,0.085911424044,0.958604377791,-0.161180788589,0.958604377791,-0.161180788589,0.0384634560844,0.085911424044
3000000000.0,0.0394891874589,0.0887347972486,0.957375020381,-0.166601759768,0.957375020381,-0.166601759768,0.0394891874589,0.0887347972486
3100000000.0,0.0405463112715,0.091544618371,0.956107382449,-0.172009377249,0.956107382449,-0.172009377249,0.0405463112715,0.091544618371
3200000000.0,0.0416346407455,0.0943404925865,0.954801644221,-0.177403251219,0.954801644221,-0.177403251219,0.0416346407455,0.0943404925865
3300000000.0,0.0427539811425,0.0971220288701,0.953457993684,-0.182782995601,0.953457993684,-0.182782995601,0.0427539811425,0.0971220288701
3400000000.0,0.0439041300893,0.099888840122,0.952076626264,-0.188148228177,0.952076626264,-0.188148228177,0.0439041300893,0.099888840122
3500000000.0,0.0450848778756,0.102640543289,0.950657744526,-0.193498570712,0.950657744526,-0.193498570712,0.0450848778756,0.102640543289
3600000000.0,0.0462960077275,0.105376759478,0.949201557901,-0.198833649071,0.949201557901,-0.198833649071,0.0462960077275,0.105376759478
3700000000.0,0.0475372960602,0.108097114072,0.947708282431,-0.204153093327,0.947708282431,-0.204153093327,0.0475372960602,0.108097114072
3800000000.0,0.0488085127147,0.110801236831,0.946178140539,-0.209456537869,0.946178140539,-0.209456537869,0.0488085127147,0.110801236831
3900000000.0,0.0501094211787,0.113488761998,0.9446113608,-0.214743621505,0.9446113608,-0.214743621505,0.0501094211787,0.113488761998
4000000000.0,0.0514397787964,0.116159328395,0.943008177735,-0.220013987562,0.943008177735,-0.220013987562,0.0514397787964,0.116159328395
4100000000.0,0.0527993369677,0.118812579519,0.941368831612,-0.225267283975,0.941368831612,-0.225267283975,0.0527993369677,0.118812579519
4200000000.0,0.0541878413376,0.121448163631,0.939693568257,-0.230503163383,0.939693568257,-0.230503163383,0.0541878413376,0.121448163631
4300000000.0,0.0556050319799,0.124065733845,0.937982638867,-0.235721283213,0.937982638867,-0.235721283213,0.0556050319799,0.124065733845
4400000000.0,0.0570506435725,0.126664948204,0.936236299837,-0.240921305759,0.936236299837,-0.240921305759,0.0570506435725,0.126664948204
4500000000.0,0.0585244055686,0.129245469769,0.934454812591,-0.24610289827,0.934454812591,-0.24610289827,0.0585244055686,0.129245469769
4600000000.0,0.0600260423619,0.131806966685,0.932638443411,-0.251265733014,0.932638443411,-0.251265733014,0.0600260423619,0.131806966685
4700000000.0,0.0615552734488,0.13434911226,0.930787463279,-0.256409487359,0.930787463279,-0.256409487359,0.0615552734488,0.13434911226
4800000000.0,0.0631118135856,0.136871585031,0.928902147718,-0.261533843838,0.928902147718,-0.261533843838,0.0631118135856,0.136871585031
4900000000.0,0.064695372944,0.139374068828,0.926982776638,-0.266638490212,0.926982776638,-0.266638490212,0.064695372944,0.139374068828
5000000000.0,0.0663056572623,0.141856252837,0.92502963418,-0.271723119534,0.92502963418,-0.271723119534,0.0663056572623,0.141856252837
5100000000.0,0.0679423679955,0.144317831659,0.923043008573,-0.276787430204,0.923043008573,-0.276787430204,0.0679423679955,0.144317831659
5200000000.0,0.0696052024618,0.146758505364,0.92102319198,-0.28183112603,0.92102319198,-0.28183112603,0.0696052024618,0.146758505364
5300000000.0,0.0712938539886,0.149177979542,0.918970480358,-0.286853916271,0.918970480358,-0.286853916271,0.0712938539886,0.149177979542
5400000000.0,0.073008012055,0.151575965356,0.91688517331,-0.29185551569,0.91688517331,-0.29185551569,0.073008012055,0.151575965356
5500000000.0,0.0747473624346,0.153952179582,0.914767573946,-0.296835644601,0.914767573946,-0.296835644601,0.0747473624346,0.153952179582
5600000000.0,0.0765115873348,0.156306344653,0.912617988741,-0.301794028904,0.912617988741,-0.301794028904,0.0765115873348,0.156306344653
5700000000.0,0.0783003655361,0.1586381887,0.910436727395,-0.306730400129,0.910436727395,-0.306730400129,0.0783003655361,0.1586381887
5800000000.0,0.0801133725295,0.160947445586,0.9082241027,-0.31164449547,0.9082241027,-0.31164449547,0.0801133725295,0.160947445586
5900000000.0,0.0819502806527,0.163233854938,0.905980430396,-0.316536057815,0.905980430396,-0.316536057815,0.0819502806527,0.163233854938
6000000000.0,0.0838107592252,0.165497162181,0.903706029044,-0.32140483578,0.903706029044,-0.32140483578,0.0838107592252,0.165497162181
6100000000.0,0.0856944746819,0.167737118558,0.901401219883,-0.326250583729,0.901401219883,-0.326250583729,0.0856944746819,0.167737118558
6200000000.0,0.0876010907062,0.169953481161,0.899066326706,-0.331073061803,0.899066326706,-0.331073061803,0.0876010907062,0.169953481161
6300000000.0,0.0895302683609,0.172146012947,0.896701675722,-0.335872035935,0.896701675722,-0.335872035935,0.0895302683609,0.172146012947
6400000000.0,0.0914816662195,0.174314482758,0.894307595426,-0.34064727787,0.894307595426,-0.34064727787,0.0914816662195,0.174314482758
6500000000.0,0.0934549404948,0.176458665335,0.891884416472,-0.345398565182,0.891884416472,-0.345398565182,0.0934549404948,0.176458665335
6600000000.0,0.0954497451673,0.178578341331,0.889432471541,-0.350125681278,0.889432471541,-0.350125681278,0.0954497451673,0.178578341331
6700000000.0,0.0974657321127,0.180673297319,0.886952095219,-0.354828415413,0.886952095219,-0.354828415413,0.0974657321127,0.180673297319
6800000000.0,0.0995025512272,0.182743325802,0.884443623863,-0.359506562695,0.884443623863,-0.359506562695,0.0995025512272,0.182743325802
6900000000.0,0.101559850553,0.184788225212,0.881907395483,-0.364159924086,0.881907395483,-0.364159924086,0.101559850553,0.184788225212
7000000000.0,0.1036372764,0.186807799916,0.879343749612,-0.368788306401,0.879343749612,-0.368788306401,0.1036372764,0.186807799916
7100000000.0,0.105734473473,0.188801860212,0.876753027189,-0.373391522311,0.876753027189,-0.373391522311,0.105734473473,0.188801860212
7200000000.0,0.107851084985,0.190770222323,0.874135570433,-0.377969390335,0.874135570433,-0.377969390335,0.107851084985,0.190770222323
7300000000.0,0.109986752786,0.192712708395,0.871491722724,-0.382521734832,0.871491722724,-0.382521734832,0.109986752786,0.192712708395
7400000000.0,0.112141117475,0.194629146486,0.868821828487,-0.38704838599,0.868821828487,-0.38704838599,0.112141117475,0.194629146486
7500000000.0,0.11431381852,0.196519370553,0.866126233067,-0.391549179817,0.866126233067,-0.391549179817,0.11431381852,0.196519370553
7600000000.0,0.116504494373,0.198383220439,0.863405282621,-0.396023958126,0.863405282621,-0.396023958126,0.116504494373,0.198383220439
7700000000.0,0.118712782588,0.200220541858,0.860659323995,-0.400472568512,0.860659323995,-0.400472568512,0.118712782588,0.200220541858
7800000000.0,0.120938319929,0.202031186374,0.857888704619,-0.404894864341,0.857888704619,-0.404894864341,0.120938319929,0.202031186374
7900000000.0,0.123180742486,0.203815011382,0.855093772386,-0.409290704718,0.855093772386,-0.409290704718,0.123180742486,0.203815011382
8000000000.0,0.125439685781,0.205571880083,0.852274875547,-0.413659954474,0.852274875547,-0.413659954474,0.125439685781,0.205571880083
8100000000.0,0.127714784885,0.207301661462,0.849432362598,-0.418002484131,0.849432362598,-0.418002484131,0.127714784885,0.207301661462
8200000000.0,0.130005674514,0.209004230255,0.846566582175,-0.422318169877,0.846566582175,-0.422318169877,0.130005674514,0.209004230255
8300000000.0,0.132311989145,0.210679466926,0.843677882948,-0.426606893534,0.843677882948,-0.426606893534,0.132311989145,0.210679466926
8400000000.0,0.134633363116,0.212327257631,0.840766613511,-0.43086854253,0.840766613511,-0.43086854253,0.134633363116,0.212327257631
8500000000.0,0.136969430727,0.213947494185,0.837833122287,-0.435103009858,0.837833122287,-0.435103009858,0.136969430727,0.213947494185
8600000000.0,0.139319826343,0.21554007403,0.834877757418,-0.439310194042,0.834877757418,-0.439310194042,0.139319826343,0.21554007403
8700000000.0,0.141684184496,0.217104900192,0.831900866671,-0.443489999102,0.831900866671,-0.443489999102,0.141684184496,0.217104900192
8800000000.0,0.144062139977,0.21864188125,0.828902797338,-0.447642334509,0.828902797338,-0.447642334509,0.144062139977,0.21864188125
8900000000.0,0.146453327938,0.220150931286,0.825883896138,-0.451767115145,0.825883896138,-0.451767115145,0.146453327938,0.220150931286
9000000000.0,0.148857383981,0.221631969849,0.822844509124,-0.455864261262,0.822844509124,-0.455864261262,0.148857383981,0.221631969849
9100000000.0,0.151273944255,0.22308492191,0.819784981589,-0.459933698433,0.819784981589,-0.459933698433,0.151273944255,0.22308492191
9200000000.0,0.153702645544,0.224509717815,0.816705657974,-0.463975357505,0.816705657974,-0.463975357505,0.153702645544,0.224509717815
9300000000.0,0.156143125359,0.225906293237,0.81360688178,-0.467989174554,0.81360688178,-0.467989174554,0.156143125359,0.225906293237
9400000000.0,0.158595022022,0.227274589131,0.810488995477,-0.471975090835,0.810488995477,-0.471975090835,0.158595022022,0.227274589131
9500000000.0,0.161057974754,0.228614551681,0.807352340422,-0.475933052725,0.807352340422,-0.475933052725,0.161057974754,0.228614551681
9600000000.0,0.163531623757,0.229926132249,0.80419725677,-0.479863011678,0.80419725677,-0.479863011678,0.163531623757,0.229926132249
9700000000.0,0.166015610297,0.231209287323,0.801024083397,-0.483764924166,0.801024083397,-0.483764924166,0.166015610297,0.231209287323
9800000000.0,0.168509576786,0.232463978462,0.797833157813,-0.487638751627,0.797833157813,-0.487638751627,0.168509576786,0.232463978462
9900000000.0,0.171013166855,0.233690172244,0.794624816089,-0.491484460405,0.794624816089,-0.491484460405,0.171013166855,0.233690172244
10000000000.0,0.173526025437,0.234887840206,0.791399392775,-0.495302021697,0.791399392775,-0.495302021697,0.173526025437,0.234887840206
