freq (GHz),S11_real,S11_imag,S21_real,S21_imag,S12_real,S12_imag,S22_real,S22_imag
100000000.0,0.00232495424842,0.000543685067554,0.99766075849,-0.00483098308145,0.99766075849,-0.00483098308145,0.00232495424842,0.000543685067554
200000000.0,0.00234637892948,0.00108714405579,0.997607649977,-0.00966176730965,0.997607649977,-0.00966176730965,0.00234637892948,0.00108714405579
300000000.0,0.00236901229345,0.00163037936183,0.99753493391,-0.0144923528849,0.99753493391,-0.0144923528849,0.00236901229345,0.00163037936183
400000000.0,0.00239486417786,0.00217335331915,0.997440597509,-0.0193226840711,0.997440597509,-0.0193226840711,0.00239486417786,0.00217335331915
500000000.0,0.00242470623986,0.00271602005753,0.997323865675,-0.0241526887918,0.997323865675,-0.0241526887918,0.00242470623986,0.00271602005753
600000000.0,0.00245892996484,0.00325833057236,0.997184343073,-0.0289822864305,0.997184343073,-0.0289822864305,0.00245892996484,0.00325833057236
700000000.0,0.00249776468728,0.00380023445123,0.997021796173,-0.0338113909555,0.997021796173,-0.0338113909555,0.00249776468728,0.00380023445123
800000000.0,0.00254135713052,0.00434168063025,0.996836073768,-0.0386399125185,0.996836073768,-0.0386399125185,0.00254135713052,0.00434168063025
900000000.0,0.0025898068099,0.00488261777575,0.996627071613,-0.0434677583924,0.996627071613,-0.0434677583924,0.0025898068099,0.00488261777575
1000000000.0,0.00264318397288,0.00542299449507,0.996394714516,-0.0482948335764,0.996394714516,-0.0482948335764,0.00264318397288,0.00542299449507
1100000000.0,0.00270153956987,0.00596275946042,0.996138946408,-0.0531210412114,0.996138946408,-0.0531210412114,0.00270153956987,0.00596275946042
1200000000.0,0.00276491119516,0.00650186148498,0.995859724421,-0.0579462828804,0.995859724421,-0.0579462828804,0.00276491119516,0.00650186148498
1300000000.0,0.00283332682488,0.00704024957104,0.995557015179,-0.0627704588331,0.995557015179,-0.0627704588331,0.00283332682488,0.00704024957104
1400000000.0,0.00290680727462,0.007577872941,0.995230792363,-0.0675934681617,0.995230792363,-0.0675934681617,0.00290680727462,0.007577872941
1500000000.0,0.00298536787479,0.00811468105773,0.994881035054,-0.072415208938,0.994881035054,-0.072415208938,0.00298536787479,0.00811468105773
1600000000.0,0.00306901964822,0.00865062363773,0.994507726575,-0.0772355783272,0.994507726575,-0.0772355783272,0.00306901964822,0.00865062363773
1700000000.0,0.0031577701596,0.00918565065972,0.994110853658,-0.0820544726799,0.994110853658,-0.0820544726799,0.0031577701596,0.00918565065972
1800000000.0,0.00325162414224,0.00971971236997,0.993690405834,-0.0868717876103,0.993690405834,-0.0868717876103,0.00325162414224,0.00971971236997
1900000000.0,0.00335058396961,0.0102527592855,0.993246374977,-0.0916874180629,0.993246374977,-0.0916874180629,0.00335058396961,0.0102527592855
2000000000.0,0.00345465001654,0.010784742196,0.992778754952,-0.096501258369,0.992778754952,-0.096501258369,0.00345465001654,0.010784742196
2100000000.0,0.00356382094,0.011315612164,0.992287541355,-0.101313202297,0.992287541355,-0.101313202297,0.00356382094,0.011315612164
2200000000.0,0.00367809390062,0.0118453205253,0.991772731296,-0.106123143096,0.991772731296,-0.106123143096,0.00367809390062,0.0118453205253
2300000000.0,0.00379746473956,0.0123738188883,0.991234323239,-0.110930973534,0.991234323239,-0.110930973534,0.00379746473955,0.0123738188883
2400000000.0,0.00392192812144,0.0129010591328,0.990672316867,-0.115736585933,0.990672316867,-0.115736585933,0.00392192812144,0.0129010591328
2500000000.0,0.00405147765106,0.0134269934093,0.990086712979,-0.120539872198,0.990086712979,-0.120539872198,0.00405147765106,0.0134269934093
2600000000.0,0.00418610596962,0.0139515741377,0.989477513397,-0.125340723851,0.989477513397,-0.125340723851,0.00418610596962,0.0139515741377
2700000000.0,0.00432580483479,0.0144747540056,0.988844720905,-0.130139032049,0.988844720905,-0.130139032049,0.00432580483479,0.0144747540056
2800000000.0,0.00447056518789,0.0149964859675,0.988188339182,-0.134934687612,0.988188339182,-0.134934687612,0.00447056518789,0.0149964859675
2900000000.0,0.00462037721074,0.0155167232431,0.987508372758,-0.139727581043,0.987508372758,-0.139727581043,0.00462037721074,0.0155167232431
3000000000.0,0.00477523037409,0.0160354193161,0.986804826975,-0.14451760255,0.986804826975,-0.14451760255,0.00477523037409,0.0160354193161
3100000000.0,0.00493511347915,0.016552527933,0.986077707948,-0.149304642061,0.986077707948,-0.149304642061,0.00493511347915,0.016552527933
3200000000.0,0.00510001469348,0.0170680031018,0.985327022544,-0.154088589243,0.985327022544,-0.154088589243,0.00510001469348,0.0170680031018
3300000000.0,0.00526992158224,0.0175817990906,0.98455277835,-0.15886933352,0.98455277835,-0.15886933352,0.00526992158224,0.0175817990906
3400000000.0,0.00544482113542,0.0180938704272,0.98375498366,-0.163646764083,0.98375498366,-0.163646764083,0.00544482113542,0.0180938704272
3500000000.0,0.00562469979189,0.0186041718973,0.982933647454,-0.168420769911,0.982933647454,-0.168420769911,0.00562469979189,0.0186041718973
3600000000.0,0.00580954346059,0.0191126585441,0.982088779383,-0.173191239778,0.982088779383,-0.173191239778,0.00580954346059,0.0191126585441
3700000000.0,0.00599933753944,0.0196192856669,0.981220389757,-0.177958062268,0.981220389757,-0.177958062268,0.00599933753944,0.0196192856669
3800000000.0,0.00619406693216,0.020124008821,0.980328489534,-0.182721125791,0.980328489534,-0.182721125791,0.00619406693216,0.020124008821
3900000000.0,0.00639371606345,0.0206267838164,0.979413090311,-0.187480318586,0.979413090311,-0.187480318586,0.00639371606345,0.0206267838164
4000000000.0,0.00659826889264,0.0211275667172,0.978474204318,-0.19223552874,0.978474204318,-0.19223552874,0.00659826889264,0.0211275667172
4100000000.0,0.00680770892606,0.0216263138412,0.977511844406,-0.196986644195,0.977511844406,-0.196986644195,0.00680770892606,0.0216263138412
4200000000.0,0.00702201922829,0.0221229817593,0.976526024044,-0.201733552756,0.976526024044,-0.201733552756,0.00702201922829,0.0221229817593
4300000000.0,0.0072411824325,0.0226175272951,0.975516757316,-0.206476142105,0.975516757316,-0.206476142105,0.0072411824325,0.0226175272951
4400000000.0,0.00746518074986,0.023109907524,0.974484058912,-0.211214299805,0.974484058912,-0.211214299805,0.00746518074986,0.023109907524
4500000000.0,0.00769399597824,0.0236000797737,0.973427944126,-0.215947913315,0.973427944126,-0.215947913315,0.00769399597824,0.0236000797737
4600000000.0,0.00792760951029,0.0240880016233,0.972348428853,-0.220676869994,0.972348428853,-0.220676869994,0.00792760951029,0.0240880016233
4700000000.0,0.00816600234083,0.0245736309031,0.971245529586,-0.225401057109,0.971245529586,-0.225401057109,0.00816600234083,0.0245736309031
4800000000.0,0.00840915507388,0.0250569256947,0.970119263413,-0.230120361845,0.970119263413,-0.230120361845,0.00840915507388,0.0250569256947
4900000000.0,0.00865704792911,0.0255378443305,0.968969648015,-0.234834671314,0.968969648015,-0.234834671314,0.00865704792911,0.0255378443305
5000000000.0,0.0089096607479,0.0260163453941,0.967796701662,-0.239543872559,0.967796701662,-0.239543872559,0.0089096607479,0.0260163453941
5100000000.0,0.00916697299908,0.0264923877197,0.966600443214,-0.244247852563,0.966600443214,-0.244247852563,0.00916697299908,0.0264923877197
5200000000.0,0.00942896378433,0.0269659303928,0.965380892119,-0.248946498255,0.965380892119,-0.248946498255,0.00942896378433,0.0269659303928
5300000000.0,0.00969561184324,0.0274369327493,0.964138068411,-0.253639696519,0.964138068411,-0.253639696519,0.00969561184324,0.0274369327493
5400000000.0,0.00996689555813,0.0279053543766,0.962871992706,-0.2583273342,0.962871992706,-0.2583273342,0.00996689555813,0.0279053543766
5500000000.0,0.0102427929587,0.0283711551132,0.961582686208,-0.263009298109,0.961582686208,-0.263009298109,0.0102427929587,0.0283711551132
5600000000.0,0.0105232817262,0.0288342950488,0.9602701707,-0.267685475029,0.9602701707,-0.267685475029,0.0105232817262,0.0288342950488
5700000000.0,0.010808339198,0.0292947345248,0.95893446855,-0.272355751724,0.95893446855,-0.272355751724,0.010808339198,0.0292947345248
5800000000.0,0.0110979423711,0.0297524341344,0.957575602705,-0.277020014945,0.957575602705,-0.277020014945,0.0110979423711,0.0297524341344
5900000000.0,0.0113920679061,0.0302073547228,0.956193596693,-0.281678151431,0.956193596693,-0.281678151431,0.0113920679061,0.0302073547228
6000000000.0,0.0116906921313,0.0306594573878,0.954788474622,-0.286330047922,0.954788474622,-0.286330047922,0.0116906921313,0.0306594573878
6100000000.0,0.0119937910455,0.0311087034799,0.953360261181,-0.290975591157,0.953360261181,-0.290975591157,0.0119937910455,0.0311087034799
6200000000.0,0.0123013403219,0.0315550546026,0.951908981636,-0.295614667887,0.951908981636,-0.295614667887,0.0123013403219,0.0315550546026
6300000000.0,0.0126133153114,0.0319984726132,0.95043466183,-0.300247164876,0.95043466183,-0.300247164876,0.0126133153114,0.0319984726132
6400000000.0,0.0129296910455,0.0324389196227,0.948937328188,-0.304872968906,0.948937328188,-0.304872968906,0.0129296910455,0.0324389196227
6500000000.0,0.0132504422396,0.0328763579967,0.947417007709,-0.309491966785,0.947417007709,-0.309491966785,0.0132504422396,0.0328763579967
6600000000.0,0.0135755432958,0.0333107503558,0.945873727971,-0.314104045351,0.945873727971,-0.314104045351,0.0135755432958,0.0333107503558
6700000000.0,0.0139049683062,0.0337420595758,0.944307517129,-0.318709091477,0.944307517129,-0.318709091477,0.0139049683062,0.0337420595758
6800000000.0,0.0142386910553,0.0341702487888,0.942718403912,-0.323306992076,0.942718403912,-0.323306992076,0.0142386910553,0.0341702487888
6900000000.0,0.0145766850228,0.0345952813832,0.941106417629,-0.327897634104,0.941106417629,-0.327897634104,0.0145766850228,0.0345952813832
7000000000.0,0.0149189233867,0.0350171210047,0.939471588161,-0.332480904569,0.939471588161,-0.332480904569,0.0149189233867,0.0350171210047
7100000000.0,0.0152653790256,0.0354357315565,0.937813945967,-0.337056690533,0.937813945967,-0.337056690533,0.0152653790256,0.0354357315565
7200000000.0,0.015616024521,0.0358510772004,0.936133522082,-0.341624879118,0.936133522082,-0.341624879118,0.015616024521,0.0358510772004
7300000000.0,0.0159708321605,0.036263122357,0.934430348112,-0.346185357509,0.934430348112,-0.346185357509,0.0159708321605,0.036263122357
7400000000.0,0.0163297739397,0.0366718317068,0.932704456241,-0.350738012958,0.932704456241,-0.350738012958,0.0163297739397,0.0366718317068
7500000000.0,0.0166928215648,0.0370771701905,0.930955879226,-0.355282732795,0.930955879226,-0.355282732795,0.0166928215648,0.0370771701905
7600000000.0,0.0170599464551,0.03747910301,0.929184650397,-0.359819404422,0.929184650397,-0.359819404422,0.0170599464551,0.03747910301
7700000000.0,0.0174311197451,0.0378775956287,0.92739080366,-0.364347915326,0.92739080366,-0.364347915326,0.0174311197451,0.0378775956287
7800000000.0,0.0178063122868,0.038272613773,0.925574373492,-0.368868153081,0.925574373492,-0.368868153081,0.0178063122868,0.038272613773
7900000000.0,0.0181854946523,0.0386641234321,0.923735394942,-0.37338000535,0.923735394942,-0.37338000535,0.0181854946523,0.0386641234321
8000000000.0,0.0185686371355,0.0390520908597,0.921873903635,-0.377883359892,0.921873903635,-0.377883359892,0.0185686371355,0.0390520908597
8100000000.0,0.0189557097547,0.039436482574,0.919989935765,-0.382378104565,0.919989935765,-0.382378104565,0.0189557097547,0.039436482574
8200000000.0,0.0193466822545,0.039817265359,0.918083528097,-0.38686412733,0.918083528097,-0.38686412733,0.0193466822545,0.039817265359
8300000000.0,0.0197415241082,0.0401944062652,0.916154717971,-0.391341316256,0.916154717971,-0.391341316256,0.0197415241082,0.0401944062652
8400000000.0,0.0201402045193,0.0405678726105,0.914203543295,-0.395809559524,0.914203543295,-0.395809559524,0.0201402045193,0.0405678726105
8500000000.0,0.0205426924246,0.0409376319807,0.912230042548,-0.40026874543,0.912230042548,-0.40026874543,0.0205426924246,0.0409376319807
8600000000.0,0.0209489564951,0.0413036522309,0.910234254778,-0.404718762391,0.910234254778,-0.404718762391,0.0209489564951,0.0413036522309
8700000000.0,0.0213589651388,0.041665901486,0.908216219604,-0.409159498946,0.908216219604,-0.409159498946,0.0213589651388,0.041665901486
8800000000.0,0.0217726865026,0.0420243481415,0.906175977213,-0.413590843762,0.906175977213,-0.413590843762,0.0217726865026,0.0420243481415
8900000000.0,0.0221900884738,0.042378960865,0.904113568361,-0.41801268564,0.904113568361,-0.41801268564,0.0221900884738,0.042378960865
9000000000.0,0.0226111386828,0.0427297085964,0.902029034373,-0.422424913513,0.902029034373,-0.422424913513,0.0226111386828,0.0427297085964
9100000000.0,0.0230358045043,0.0430765605492,0.899922417139,-0.426827416456,0.899922417139,-0.426827416456,0.0230358045043,0.0430765605492
9200000000.0,0.0234640530599,0.0434194862114,0.897793759117,-0.431220083687,0.897793759117,-0.431220083687,0.0234640530599,0.0434194862114
9300000000.0,0.0238958512196,0.0437584553464,0.895643103333,-0.435602804568,0.895643103333,-0.435602804568,0.0238958512196,0.0437584553464
9400000000.0,0.0243311656037,0.0440934379941,0.893470493376,-0.439975468616,0.893470493376,-0.439975468616,0.0243311656037,0.0440934379941
9500000000.0,0.024769962585,0.0444244044716,0.891275973402,-0.444337965499,0.891275973402,-0.444337965499,0.024769962585,0.0444244044716
9600000000.0,0.0252122082902,0.0447513253744,0.889059588131,-0.448690185046,0.889059588131,-0.448690185046,0.0252122082902,0.0447513253744
9700000000.0,0.0256578686022,0.0450741715774,0.886821382847,-0.453032017244,0.886821382847,-0.453032017244,0.0256578686022,0.0450741715774
9800000000.0,0.0261069091619,0.0453929142359,0.884561403397,-0.457363352251,0.884561403397,-0.457363352251,0.0261069091619,0.0453929142359
9900000000.0,0.0265592953696,0.0457075247863,0.882279696192,-0.461684080388,0.882279696192,-0.461684080388,0.0265592953696,0.0457075247863
10000000000.0,0.0270149923873,0.0460179749476,0.879976308202,-0.465994092154,0.879976308202,-0.465994092154,0.0270149923873,0.0460179749476
