freq (GHz),S11_real,S11_imag,S21_real,S21_imag,S12_real,S12_imag,S22_real,S22_imag
100000000.0,-3.89852284853e-05,-0.0142498262808,0.999573347206,-0.0152620372086,0.999573347206,-0.0152620372086,-3.89852284851e-05,-0.0142498262808
200000000.0,-0.000704256854233,-0.0284801552195,0.998903905476,-0.030504634825,0.998903905476,-0.030504634825,-0.000704256854234,-0.0284801552195
300000000.0,-0.00180272585918,-0.0426722189543,0.997800908301,-0.0457090660331,0.997800908301,-0.0457090660331,-0.00180272585918,-0.0426722189543
400000000.0,-0.00333148593768,-0.056807358635,0.996266927825,-0.0608567058678,0.996266927825,-0.0608567058678,-0.00333148593768,-0.056807358635
500000000.0,-0.00528666871728,-0.070867125499,0.994305703812,-0.0759291362216,0.994305703812,-0.0759291362216,-0.00528666871728,-0.070867125499
600000000.0,-0.00766339366459,-0.084833364791,0.991922051044,-0.0909082309526,0.991922051044,-0.0909082309526,-0.00766339366459,-0.084833364791
700000000.0,-0.0104557782304,-0.0986882930408,0.989121812977,-0.105776233742,0.989121812977,-0.105776233742,-0.0104557782304,-0.0986882930408
800000000.0,-0.0136569658753,-0.112414570451,0.985911820529,-0.12051583082,0.985911820529,-0.12051583082,-0.0136569658753,-0.112414570451
900000000.0,-0.0172591635999,-0.125995368659,0.98229984868,-0.135110218949,0.98229984868,-0.135110218949,-0.0172591635999,-0.125995368659
1000000000.0,-0.0212536862363,-0.139414433727,0.978294569228,-0.149543168565,0.978294569228,-0.149543168565,-0.0212536862363,-0.139414433727
1100000000.0,-0.0256310061636,-0.152656144093,0.973905499419,-0.163799081842,0.973905499419,-0.163799081842,-0.0256310061636,-0.152656144093
1200000000.0,-0.0303808075454,-0.165705563199,0.969142946737,-0.177863045407,0.969142946737,-0.177863045407,-0.0303808075454,-0.165705563199
1300000000.0,-0.0354920443415,-0.178548486552,0.964017950277,-0.191720877465,0.964017950277,-0.191720877465,-0.0354920443414,-0.178548486552
1400000000.0,-0.0409530014017,-0.191171482996,0.958542219249,-0.20535916913,0.958542219249,-0.20535916913,-0.0409530014017,-0.191171482996
1500000000.0,-0.0467513579781,-0.203561930073,0.952728069194,-0.218765319825,0.952728069194,-0.218765319825,-0.0467513579781,-0.203561930073
1600000000.0,-0.0528742530075,-0.215708043379,0.946588356509,-0.231927566683,0.946588356509,-0.231927566683,-0.0528742530075,-0.215708043379
1700000000.0,-0.0593083515333,-0.227598899909,0.940136411886,-0.244835007913,0.940136411886,-0.244835007913,-0.0593083515333,-0.227598899909
1800000000.0,-0.0660399116582,-0.239224455432,0.933385973263,-0.257477620215,0.933385973263,-0.257477620215,-0.0660399116582,-0.239224455432
1900000000.0,-0.0730548514421,-0.250575556021,0.926351118845,-0.269846270322,0.926351118845,-0.269846270322,-0.0730548514421,-0.250575556021
2000000000.0,-0.0803388151943,-0.261643943897,0.919046200759,-0.281932720875,0.919046200759,-0.281932720875,-0.0803388151943,-0.261643943897
2100000000.0,-0.0878772386451,-0.272422257812,0.911485779833,-0.293729630816,0.911485779833,-0.293729630816,-0.0878772386451,-0.272422257812
2200000000.0,-0.0956554125209,-0.282904028235,0.903684561994,-0.305230550596,0.903684561994,-0.305230550596,-0.0956554125209,-0.282904028235
2300000000.0,-0.103658544095,-0.293083667651,0.89565733668,-0.316429912486,0.89565733668,-0.316429912486,-0.103658544095,-0.293083667651
2400000000.0,-0.111871816329,-0.302956456307,0.887418917684,-0.327323016342,0.887418917684,-0.327323016342,-0.111871816329,-0.302956456307
2500000000.0,-0.120280444282,-0.312518523784,0.878984086724,-0.337906011179,0.878984086724,-0.337906011179,-0.120280444282,-0.312518523784
2600000000.0,-0.128869728485,-0.321766826759,0.870367540053,-0.348175872956,0.870367540053,-0.348175872956,-0.128869728485,-0.321766826759
2700000000.0,-0.137625105074,-0.330699123377,0.861583838317,-0.358130378952,0.861583838317,-0.358130378952,-0.137625105074,-0.330699123377
2800000000.0,-0.146532192477,-0.339313944629,0.852647359854,-0.367768079151,0.852647359854,-0.367768079151,-0.146532192477,-0.339313944629
2900000000.0,-0.155576834532,-0.347610563138,0.843572257574,-0.377088265045,0.843572257574,-0.377088265045,-0.155576834532,-0.347610563138
3000000000.0,-0.164745139939,-0.355588959771,0.83437241949,-0.386090936249,0.83437241949,-0.386090936249,-0.164745139939,-0.355588959771
3100000000.0,-0.174023518011,-0.363249788452,0.825061432973,-0.39477676532,0.825061432973,-0.39477676532,-0.174023518011,-0.363249788452
3200000000.0,-0.183398710697,-0.370594339575,0.815652552714,-0.403147061185,0.815652552714,-0.403147061185,-0.183398710697,-0.370594339575
3300000000.0,-0.192857820931,-0.377624502366,0.806158672377,-0.411203731502,0.806158672377,-0.411203731502,-0.192857820931,-0.377624502366
3400000000.0,-0.202388337348,-0.384342726553,0.796592299873,-0.418949244342,0.796592299873,-0.418949244342,-0.202388337348,-0.384342726553
3500000000.0,-0.211978155476,-0.390751983655,0.786965536173,-0.426386589478,0.786965536173,-0.426386589478,-0.211978155476,-0.390751983655
3600000000.0,-0.221615595505,-0.396855728193,0.777290057529,-0.43351923961,0.777290057529,-0.43351923961,-0.221615595505,-0.396855728193
3700000000.0,-0.231289416788,-0.402657859101,0.767577100974,-0.440351111776,0.767577100974,-0.440351111776,-0.231289416788,-0.402657859101
3800000000.0,-0.240988829208,-0.408162681582,0.757837452951,-0.446886529214,0.757837452951,-0.446886529214,-0.240988829208,-0.408162681582
3900000000.0,-0.250703501611,-0.413374869626,0.748081440881,-0.453130183887,0.748081440881,-0.453130183887,-0.250703501611,-0.413374869626
4000000000.0,-0.26042356745,-0.418299429399,0.738318927513,-0.459087099876,0.738318927513,-0.459087099876,-0.26042356745,-0.418299429399
4100000000.0,-0.270139627866,-0.422941663655,0.728559307842,-0.464762597798,0.728559307842,-0.464762597798,-0.270139627866,-0.422941663655
4200000000.0,-0.279842752368,-0.42730713734,0.718811508435,-0.470162260407,0.718811508435,-0.470162260407,-0.279842752368,-0.42730713734
4300000000.0,-0.289524477324,-0.431401644483,0.709083988926,-0.475291899503,0.709083988926,-0.475291899503,-0.289524477324,-0.431401644483
4400000000.0,-0.299176802457,-0.435231176497,0.699384745528,-0.480157524226,0.699384745528,-0.480157524226,-0.299176802457,-0.435231176497
4500000000.0,-0.308792185534,-0.438801891954,0.689721316342,-0.484765310837,0.689721316342,-0.484765310837,-0.308792185534,-0.438801891954
4600000000.0,-0.318363535442,-0.442120087893,0.680100788274,-0.489121574036,0.680100788274,-0.489121574036,-0.318363535442,-0.442120087893
4700000000.0,-0.327884203829,-0.44519217271,0.670529805401,-0.493232739849,0.670529805401,-0.493232739849,-0.327884203829,-0.44519217271
4800000000.0,-0.337347975494,-0.448024640645,0.661014578575,-0.497105320117,0.661014578575,-0.497105320117,-0.337347975494,-0.448024640645
4900000000.0,-0.346749057684,-0.450624047868,0.651560896125,-0.500745888597,0.651560896125,-0.500745888597,-0.346749057684,-0.450624047868
5000000000.0,-0.356082068471,-0.452996990183,0.642174135482,-0.504161058657,0.642174135482,-0.504161058657,-0.356082068471,-0.452996990183
5100000000.0,-0.365342024346,-0.455150082307,0.63285927558,-0.507357462564,0.63285927558,-0.507357462564,-0.365342024346,-0.455150082307
5200000000.0,-0.374524327187,-0.457089938707,0.623620909893,-0.510341732325,0.623620909893,-0.510341732325,-0.374524327187,-0.457089938707
5300000000.0,-0.383624750712,-0.458823155968,0.614463259976,-0.513120482058,0.614463259976,-0.513120482058,-0.383624750712,-0.458823155968
5400000000.0,-0.392639426559,-0.460356296635,0.605390189386,-0.51570029183,0.605390189386,-0.51570029183,-0.392639426559,-0.460356296635
5500000000.0,-0.401564830088,-0.461695874485,0.596405217879,-0.518087692945,0.596405217879,-0.518087692945,-0.401564830088,-0.461695874485
5600000000.0,-0.410397766018,-0.462848341177,0.587511535774,-0.520289154584,0.587511535774,-0.520289154584,-0.410397766018,-0.462848341177
5700000000.0,-0.419135353979,-0.463820074218,0.578712018397,-0.522311071783,0.578712018397,-0.522311071783,-0.419135353979,-0.463820074218
5800000000.0,-0.427775014078,-0.464617366184,0.570009240518,-0.524159754655,0.570009240518,-0.524159754655,-0.427775014078,-0.464617366184
5900000000.0,-0.436314452532,-0.465246415139,0.561405490712,-0.525841418805,0.561405490712,-0.525841418805,-0.436314452532,-0.465246415139
6000000000.0,-0.444751647455,-0.465713316175,0.55290278558,-0.527362176881,0.55290278558,-0.527362176881,-0.444751647455,-0.465713316175
6100000000.0,-0.453084834837,-0.466024054015,0.544502883758,-0.528728031179,0.544502883758,-0.528728031179,-0.453084834837,-0.466024054015
6200000000.0,-0.461312494777,-0.466184496625,0.536207299692,-0.529944867251,0.536207299692,-0.529944867251,-0.461312494777,-0.466184496625
6300000000.0,-0.469433338015,-0.466200389744,0.528017317103,-0.531018448443,0.528017317103,-0.531018448443,-0.469433338015,-0.466200389744
6400000000.0,-0.477446292778,-0.466077352294,0.519934002137,-0.531954411307,0.519934002137,-0.531954411307,-0.477446292778,-0.466077352294
6500000000.0,-0.485350492006,-0.465820872594,0.511958216143,-0.532758261816,0.511958216143,-0.532758261816,-0.485350492006,-0.465820872594
6600000000.0,-0.493145260943,-0.465436305324,0.504090628077,-0.533435372332,0.504090628077,-0.533435372332,-0.493145260943,-0.465436305324
6700000000.0,-0.500830105148,-0.464928869178,0.496331726494,-0.53399097926,0.496331726494,-0.53399097926,-0.500830105148,-0.464928869178
6800000000.0,-0.508404698915,-0.464303645148,0.488681831126,-0.534430181334,0.488681831126,-0.534430181334,-0.508404698915,-0.464303645148
6900000000.0,-0.515868874125,-0.463565575393,0.481141104025,-0.534757938489,0.481141104025,-0.534757938489,-0.515868874125,-0.463565575393
7000000000.0,-0.523222609539,-0.462719462632,0.473709560275,-0.534979071258,0.473709560275,-0.534979071258,-0.523222609539,-0.462719462632
7100000000.0,-0.530466020532,-0.461769970021,0.466387078257,-0.535098260648,0.466387078257,-0.535098260648,-0.530466020532,-0.461769970021
7200000000.0,-0.537599349262,-0.460721621462,0.459173409473,-0.535120048454,0.459173409473,-0.535120048454,-0.537599349262,-0.460721621462
7300000000.0,-0.54462295529,-0.459578802304,0.452068187934,-0.53504883796,0.452068187934,-0.53504883796,-0.54462295529,-0.459578802304
7400000000.0,-0.551537306628,-0.458345760398,0.445070939102,-0.534888894996,0.445070939102,-0.534888894996,-0.551537306628,-0.458345760398
7500000000.0,-0.558342971224,-0.457026607457,0.43818108841,-0.534644349304,0.43818108841,-0.534644349304,-0.558342971224,-0.457026607457
7600000000.0,-0.565040608872,-0.455625320695,0.431397969352,-0.534319196175,0.431397969352,-0.534319196175,-0.565040608872,-0.455625320695
7700000000.0,-0.571630963524,-0.454145744719,0.424720831162,-0.533917298343,0.424720831162,-0.533917298343,-0.571630963524,-0.454145744719
7800000000.0,-0.578114856027,-0.452591593616,0.41814884609,-0.533442388078,0.41814884609,-0.533442388078,-0.578114856027,-0.452591593616
7900000000.0,-0.584493177234,-0.450966453239,0.411681116274,-0.532898069469,0.411681116274,-0.532898069469,-0.584493177234,-0.450966453239
8000000000.0,-0.590766881511,-0.449273783644,0.405316680247,-0.532287820868,0.405316680247,-0.532287820868,-0.590766881511,-0.449273783644
8100000000.0,-0.596936980603,-0.447516921661,0.399054519055,-0.531614997459,0.399054519055,-0.531614997459,-0.596936980603,-0.447516921661
8200000000.0,-0.603004537865,-0.445699083577,0.39289356204,-0.530882833943,0.39289356204,-0.530882833943,-0.603004537865,-0.445699083577
8300000000.0,-0.608970662832,-0.443823367909,0.386832692259,-0.530094447317,0.386832692259,-0.530094447317,-0.608970662832,-0.443823367909
8400000000.0,-0.614836506118,-0.44189275825,0.380870751587,-0.529252839718,0.380870751587,-0.529252839718,-0.614836506118,-0.44189275825
8500000000.0,-0.620603254632,-0.439910126169,0.375006545499,-0.528360901326,0.375006545499,-0.528360901326,-0.620603254632,-0.439910126169
8600000000.0,-0.626272127101,-0.437878234152,0.36923884755,-0.527421413309,0.36923884755,-0.527421413309,-0.626272127101,-0.437878234152
8700000000.0,-0.631844369875,-0.435799738567,0.363566403563,-0.526437050787,0.363566403563,-0.526437050787,-0.631844369875,-0.435799738567
8800000000.0,-0.637321253014,-0.433677192649,0.357987935545,-0.525410385818,0.357987935545,-0.525410385818,-0.637321253014,-0.433677192649
8900000000.0,-0.642704066636,-0.431513049474,0.352502145334,-0.524343890378,0.352502145334,-0.524343890378,-0.642704066636,-0.431513049474
9000000000.0,-0.647994117516,-0.429309664939,0.347107718008,-0.523239939343,0.347107718008,-0.523239939343,-0.647994117516,-0.429309664939
9100000000.0,-0.653192725917,-0.42706930072,0.341803325037,-0.52210081344,0.341803325037,-0.52210081344,-0.653192725917,-0.42706930072
9200000000.0,-0.658301222658,-0.424794127202,0.336587627231,-0.520928702192,0.336587627231,-0.520928702192,-0.658301222658,-0.424794127202
9300000000.0,-0.663320946384,-0.422486226382,0.331459277457,-0.519725706813,0.331459277457,-0.519725706813,-0.663320946384,-0.422486226382
9400000000.0,-0.668253241046,-0.420147594734,0.326416923165,-0.518493843078,0.326416923165,-0.518493843078,-0.668253241046,-0.420147594734
9500000000.0,-0.673099453562,-0.417780146028,0.321459208718,-0.517235044146,0.321459208718,-0.517235044146,-0.673099453562,-0.417780146028
9600000000.0,-0.677860931676,-0.415385714107,0.31658477754,-0.515951163334,0.31658477754,-0.515951163334,-0.677860931676,-0.415385714107
9700000000.0,-0.682539021963,-0.412966055604,0.311792274103,-0.514643976841,0.311792274103,-0.514643976841,-0.682539021963,-0.412966055604
9800000000.0,-0.687135068018,-0.410522852617,0.307080345743,-0.513315186421,0.307080345743,-0.513315186421,-0.687135068018,-0.410522852617
9900000000.0,-0.691650408779,-0.408057715313,0.302447644332,-0.51196642199,0.302447644332,-0.51196642199,-0.691650408779,-0.408057715313
10000000000.0,-0.696086376996,-0.405572184481,0.297892827804,-0.510599244182,0.297892827804,-0.510599244182,-0.696086376996,-0.405572184481
