freq (GHz),S11_real,S11_imag,S21_real,S21_imag,S12_real,S12_imag,S22_real,S22_imag
100000000.0,-0.014302963381,-0.118220937523,0.985680480199,-0.118320245272,0.985680480199,-0.118320245272,-0.014302963381,-0.118220937523
200000000.0,-0.0546455563538,-0.226704545021,0.945337759023,-0.226903227393,0.945337759023,-0.226903227393,-0.0546455563538,-0.226704545021
300000000.0,-0.114912137364,-0.318277398522,0.88507106821,-0.318575554992,0.88507106821,-0.318575554992,-0.114912137364,-0.318277398522
400000000.0,-0.18734899055,-0.389499686715,0.812634109361,-0.389897439631,0.812634109361,-0.389897439631,-0.18734899055,-0.389499686715
500000000.0,-0.264638554583,-0.440396590458,0.735344438315,-0.440894079348,0.735344438315,-0.440894079348,-0.264638554583,-0.440396590458
600000000.0,-0.341141578589,-0.473297092342,0.658841303134,-0.473894469742,0.658841303134,-0.473894469742,-0.341141578589,-0.473297092342
700000000.0,-0.413208767528,-0.491562403988,0.586773997183,-0.492259832148,0.586773997183,-0.492259832148,-0.413208767528,-0.491562403988
800000000.0,-0.478904854521,-0.498656096853,0.521077786238,-0.49945374505,0.521077786238,-0.49945374505,-0.478904854521,-0.498656096853
900000000.0,-0.537523583008,-0.497639891145,0.462458926087,-0.498537933454,0.462458926087,-0.498537933454,-0.537523583008,-0.497639891145
1000000000.0,-0.58912619242,-0.490990888472,0.410856176724,-0.491989501914,0.410856176724,-0.491989501914,-0.58912619242,-0.490990888472
1100000000.0,-0.634192085769,-0.480603023861,0.365790134697,-0.481702386861,0.365790134697,-0.481702386861,-0.634192085769,-0.480603023861
1200000000.0,-0.673387719064,-0.467869636154,0.326594343645,-0.469069927272,0.326594343645,-0.469069927272,-0.673387719064,-0.467869636154
1300000000.0,-0.707428373456,-0.453787350651,0.292553522131,-0.455088747539,0.292553522131,-0.455088747539,-0.707428373456,-0.453787350651
1400000000.0,-0.737003185712,-0.439053050531,0.262978533147,-0.440455729087,0.262978533147,-0.440455729087,-0.737003185712,-0.439053050531
1500000000.0,-0.762739513786,-0.424143904365,0.23724201854,-0.425648038065,0.23724201854,-0.425648038065,-0.762739513786,-0.424143904365
1600000000.0,-0.785190073222,-0.409379249521,0.214791262589,-0.410985008893,0.214791262589,-0.410985008893,-0.785190073222,-0.409379249521
1700000000.0,-0.804832341385,-0.394966658723,0.195148787777,-0.396674210951,0.195148787777,-0.396674210951,-0.804832341385,-0.394966658723
1800000000.0,-0.822073963017,-0.381035440155,0.177906949229,-0.382844948786,0.177906949229,-0.382844948786,-0.822073963017,-0.381035440155
1900000000.0,-0.837260604987,-0.367660641877,0.162720079957,-0.369572266628,0.162720079957,-0.369572266628,-0.837260604987,-0.367660641877
2000000000.0,-0.850684353313,-0.354880088084,0.149296093835,-0.356893984721,0.149296093835,-0.356893984721,-0.850684353313,-0.354880088084
2100000000.0,-0.862591702194,-0.342706391476,0.137388496569,-0.344822711754,0.137388496569,-0.344822711754,-0.862591702194,-0.342706391476
2200000000.0,-0.873190720438,-0.331135382085,0.126789219262,-0.333354273752,0.126789219262,-0.333354273752,-0.873190720438,-0.331135382085
2300000000.0,-0.882657268159,-0.320151996269,0.117322401722,-0.322473603104,0.117322401722,-0.322473603104,-0.882657268159,-0.320151996269
2400000000.0,-0.891140281915,-0.309734372303,0.108839107315,-0.312158834195,0.108839107315,-0.312158834195,-0.891140281915,-0.309734372303
2500000000.0,-0.898766212726,-0.29985668237,0.101212884954,-0.302384135424,0.101212884954,-0.302384135424,-0.898766212726,-0.29985668237
2600000000.0,-0.905642725084,-0.290491075451,0.0943360700851,-0.293121652115,0.0943360700851,-0.293121652115,-0.905642725084,-0.290491075451
2700000000.0,-0.911861767049,-0.281608995317,0.0881167145875,-0.284342824531,0.0881167145875,-0.284342824531,-0.911861767049,-0.281608995317
2800000000.0,-0.917502113212,-0.273182059961,0.0824760438155,-0.276019267312,0.0824760438155,-0.276019267312,-0.917502113212,-0.273182059961
2900000000.0,-0.922631469984,-0.265182633872,0.0773463513058,-0.268123341761,0.0773463513058,-0.268123341761,-0.922631469984,-0.265182633872
3000000000.0,-0.927308219559,-0.257584185931,0.0726692548151,-0.260628513748,0.0726692548151,-0.260628513748,-0.927308219559,-0.257584185931
3100000000.0,-0.931582866508,-0.250361498446,0.0683942497265,-0.253509562746,0.0683942497265,-0.253509562746,-0.931582866508,-0.250361498446
3200000000.0,-0.935499239976,-0.243490773618,0.0644775068497,-0.246742688299,0.0644775068497,-0.246742688299,-0.935499239976,-0.243490773618
3300000000.0,-0.939095495057,-0.236949670157,0.0608808710476,-0.240305546634,0.0608808710476,-0.240305546634,-0.939095495057,-0.236949670157
3400000000.0,-0.942404949012,-0.230717293123,0.057571025018,-0.234177240508,0.057571025018,-0.234177240508,-0.942404949012,-0.230717293123
3500000000.0,-0.945456781481,-0.224774153277,0.0545187890825,-0.228338278547,0.0545187890825,-0.228338278547,-0.945456781481,-0.224774153277
3600000000.0,-0.948276622476,-0.21910210734,0.051698533189,-0.222770515505,0.051698533189,-0.222770515505,-0.948276622476,-0.21910210734
3700000000.0,-0.950887047593,-0.213684287128,0.0490876817042,-0.217457081397,0.0490876817042,-0.217457081397,-0.950887047593,-0.213684287128
3800000000.0,-0.953307996307,-0.208505023102,0.0466662951175,-0.212382305039,0.0466662951175,-0.212382305039,-0.953307996307,-0.208505023102
3900000000.0,-0.955557126345,-0.203549766065,0.0444167156649,-0.207531635742,0.0444167156649,-0.207531635742,-0.955557126345,-0.203549766065
4000000000.0,-0.9576501148,-0.198805009577,0.0423232662193,-0.202891565723,0.0423232662193,-0.202891565723,-0.9576501148,-0.198805009577
4100000000.0,-0.959600914724,-0.194258214709,0.0403719936931,-0.19844955485,0.0403719936931,-0.19844955485,-0.959600914724,-0.194258214709
4200000000.0,-0.961421974426,-0.189897738187,0.0385504497427,-0.194193958778,0.0385504497427,-0.194193958778,-0.961421974426,-0.189897738187
4300000000.0,-0.963124425419,-0.185712764511,0.0368475028224,-0.19011396107,0.0368475028224,-0.19011396107,-0.963124425419,-0.185712764511
4400000000.0,-0.964718243943,-0.18169324236,0.0352531766575,-0.186199509591,0.0352531766575,-0.186199509591,-0.964718243943,-0.18169324236
4500000000.0,-0.966212390166,-0.177829825357,0.0337585110472,-0.182441257266,0.0337585110472,-0.182441257266,-0.966212390166,-0.177829825357
4600000000.0,-0.967614928454,-0.17411381715,0.032355441591,-0.178830507158,0.032355441591,-0.178830507158,-0.967614928454,-0.17411381715
4700000000.0,-0.968933131566,-0.170537120671,0.0310366954973,-0.17535916172,0.0310366954973,-0.17535916172,-0.968933131566,-0.170537120671
4800000000.0,-0.970173571139,-0.167092191364,0.0297957010953,-0.172019676022,0.0297957010953,-0.172019676022,-0.970173571139,-0.167092191364
4900000000.0,-0.971342196469,-0.163771994168,0.0286265090556,-0.168805014722,0.0286265090556,-0.168805014722,-0.971342196469,-0.163771994168
5000000000.0,-0.97244440326,-0.160569963995,0.0275237236393,-0.165708612543,0.0275237236393,-0.165708612543,-0.97244440326,-0.160569963995
5100000000.0,-0.973485093766,-0.157479969455,0.0264824425593,-0.162724337994,0.0264824425593,-0.162724337994,-0.973485093766,-0.157479969455
5200000000.0,-0.974468729512,-0.15449627959,0.0254982042565,-0.159846460098,0.0254982042565,-0.159846460098,-0.974468729512,-0.15449627959
5300000000.0,-0.97539937762,-0.151613533366,0.0245669415739,-0.157069617884,0.0245669415739,-0.157069617884,-0.97539937762,-0.151613533366
5400000000.0,-0.976280751603,-0.148826711717,0.0236849409653,-0.154388792416,0.0236849409653,-0.154388792416,-0.976280751603,-0.148826711717
5500000000.0,-0.977116247352,-0.146131111902,0.0228488065022,-0.151799281159,0.0228488065022,-0.151799281159,-0.977116247352,-0.146131111902
5600000000.0,-0.977908974967,-0.143522323996,0.0220554280513,-0.149296674461,0.0220554280513,-0.149296674461,-0.977908974967,-0.143522323996
5700000000.0,-0.978661786941,-0.140996209333,0.021301953082,-0.14687683399,0.021301953082,-0.14687683399,-0.978661786941,-0.140996209333
5800000000.0,-0.97937730319,-0.138548880722,0.0205857616435,-0.144535872948,0.0205857616435,-0.144535872948,-0.97937730319,-0.138548880722
5900000000.0,-0.9800579333,-0.136176684278,0.0199044441135,-0.142270137906,0.0199044441135,-0.142270137906,-0.9800579333,-0.136176684278
6000000000.0,-0.980705896349,-0.133876182747,0.0192557813748,-0.140076192113,0.0192557813748,-0.140076192113,-0.980705896349,-0.133876182747
6100000000.0,-0.981323238603,-0.13164414017,0.0186377271247,-0.13795080017,0.0186377271247,-0.13795080017,-0.981323238603,-0.13164414017
6200000000.0,-0.981911849328,-0.129477507787,0.0180483920605,-0.135890913922,0.0180483920605,-0.135890913922,-0.981911849328,-0.129477507787
6300000000.0,-0.982473474947,-0.12737341106,0.017486029718,-0.133893659485,0.017486029718,-0.133893659485,-0.982473474947,-0.12737341106
6400000000.0,-0.983009731749,-0.125329137725,0.0169490237704,-0.131956325293,0.0169490237704,-0.131956325293,-0.983009731749,-0.125329137725
6500000000.0,-0.983522117295,-0.123342126786,0.016435876618,-0.130076351088,0.016435876618,-0.130076351088,-0.983522117295,-0.123342126786
6600000000.0,-0.98401202068,-0.121409958355,0.0159451991233,-0.128251317762,0.0159451991233,-0.128251317762,-0.98401202068,-0.121409958355
6700000000.0,-0.98448073179,-0.11953034429,0.0154757013605,-0.126478937989,0.0154757013605,-0.126478937989,-0.98448073179,-0.11953034429
6800000000.0,-0.984929449645,-0.11770111953,0.0150261842694,-0.124757047562,0.0150261842694,-0.124757047562,-0.984929449645,-0.11770111953
6900000000.0,-0.985359289938,-0.115920234108,0.0145955321126,-0.123083597402,0.0145955321126,-0.123083597402,-0.985359289938,-0.115920234108
7000000000.0,-0.985771291867,-0.114185745743,0.0141827056502,-0.121456646147,0.0141827056502,-0.121456646147,-0.985771291867,-0.114185745743
7100000000.0,-0.986166424316,-0.112495812996,0.0137867359556,-0.119874353312,0.0137867359556,-0.119874353312,-0.986166424316,-0.112495812996
7200000000.0,-0.986545591465,-0.110848688924,0.0134067188038,-0.118334972937,0.0134067188038,-0.118334972937,-0.986545591465,-0.110848688924
7300000000.0,-0.986909637891,-0.1092427152,0.0130418095738,-0.116836847704,0.0130418095738,-0.116836847704,-0.986909637891,-0.1092427152
7400000000.0,-0.987259353202,-0.107676316654,0.0126912186115,-0.115378403481,0.0126912186115,-0.115378403481,-0.987259353202,-0.107676316654
7500000000.0,-0.987595476264,-0.106147996208,0.0123542070067,-0.113958144256,0.0123542070067,-0.113958144256,-0.987595476264,-0.106147996208
7600000000.0,-0.987918699046,-0.104656330166,0.0120300827421,-0.112574647424,0.0120300827421,-0.112574647424,-0.987918699046,-0.104656330166
7700000000.0,-0.98822967014,-0.103199963842,0.0117181971785,-0.11122655941,0.0117181971785,-0.11122655941,-0.98822967014,-0.103199963842
7800000000.0,-0.988528997973,-0.10177760748,0.0114179418417,-0.109912591598,0.0114179418417,-0.109912591598,-0.988528997973,-0.10177760748
7900000000.0,-0.988817253743,-0.100388032467,0.0111287454836,-0.108631516535,0.0111287454836,-0.108631516535,-0.988817253743,-0.100388032467
8000000000.0,-0.989094974116,-0.0990300677957,0.0108500713898,-0.107382164394,0.0108500713898,-0.107382164394,-0.989094974116,-0.0990300677957
8100000000.0,-0.989362663691,-0.0977025967705,0.0105814149114,-0.106163419681,0.0105814149114,-0.106163419681,-0.989362663691,-0.0977025967705
8200000000.0,-0.989620797265,-0.0964045539306,0.010322301199,-0.104974218158,0.010322301199,-0.104974218158,-0.989620797265,-0.0964045539306
8300000000.0,-0.989869821918,-0.0951349221793,0.0100722831214,-0.103813543971,0.0100722831214,-0.103813543971,-0.989869821918,-0.0951349221793
8400000000.0,-0.990110158926,-0.0938927301,0.00983093935156,-0.102680426961,0.00983093935156,-0.102680426961,-0.990110158926,-0.0938927301
8500000000.0,-0.99034220552,-0.092677049448,0.00959787260361,-0.101573940164,0.00959787260361,-0.101573940164,-0.99034220552,-0.092677049448
8600000000.0,-0.990566336515,-0.0914869928018,0.00937270800966,-0.100493197453,0.00937270800966,-0.100493197453,-0.990566336515,-0.0914869928018
8700000000.0,-0.990782905803,-0.090321711366,0.00915509162193,-0.0994373513452,0.00915509162193,-0.0994373513452,-0.990782905803,-0.090321711366
8800000000.0,-0.990992247738,-0.0891803929116,0.00894468903035,-0.0984055909419,0.00894468903035,-0.0984055909419,-0.990992247738,-0.0891803929116
8900000000.0,-0.991194678416,-0.0880622598457,0.00874118408526,-0.0973971399951,0.00874118408526,-0.0973971399951,-0.991194678416,-0.0880622598457
9000000000.0,-0.991390496847,-0.0869665674009,0.00854427771625,-0.0964112550985,0.00854427771625,-0.0964112550985,-0.991390496847,-0.0869665674009
9100000000.0,-0.99157998606,-0.0858926019352,0.00835368683901,-0.0954472239867,0.00835368683901,-0.0954472239867,-0.99157998606,-0.0858926019352
9200000000.0,-0.991763414106,-0.0848396793365,0.00816914334269,-0.0945043639385,0.00816914334269,-0.0945043639385,-0.991763414106,-0.0848396793365
9300000000.0,-0.991941035001,-0.083807143522,0.00799039315127,-0.0935820202771,0.00799039315127,-0.0935820202771,-0.991941035001,-0.083807143522
9400000000.0,-0.992113089597,-0.0827943650282,0.00781719535262,-0.0926795649589,0.00781719535262,-0.0926795649589,-0.992113089597,-0.0827943650282
9500000000.0,-0.99227980639,-0.0818007396835,0.00764932138984,-0.0917963952464,0.00764932138984,-0.0917963952464,-0.99227980639,-0.0818007396835
9600000000.0,-0.99244140227,-0.0808256873597,0.00748655430993,-0.0909319324589,0.00748655430993,-0.0909319324589,-0.99244140227,-0.0808256873597
9700000000.0,-0.992598083223,-0.0798686507951,0.00732868806507,-0.0900856207959,0.00732868806507,-0.0900856207959,-0.992598083223,-0.0798686507951
9800000000.0,-0.992750044977,-0.0789290944858,0.00717552686233,-0.0892569262278,0.00717552686233,-0.0892569262278,-0.992750044977,-0.0789290944858
9900000000.0,-0.992897473612,-0.0780065036408,0.00702688455829,-0.0884453354508,0.00702688455829,-0.0884453354508,-0.992897473612,-0.0780065036408
10000000000.0,-0.99304054612,-0.077100383195,0.00688258409464,-0.0876503548999,0.00688258409464,-0.0876503548999,-0.99304054612,-0.077100383195
