freq (GHz),S11_real,S11_imag,S21_real,S21_imag,S12_real,S12_imag,S22_real,S22_imag
100000000.0,6.31886798823e-05,-0.000163841177973,0.99993523851,-0.000313464168237,0.99993523851,-0.000313464168237,6.31886798823e-05,-0.000163841177973
200000000.0,6.32359956516e-05,-0.000327684916188,0.999934390545,-0.000626931839134,0.999934390545,-0.000626931839134,6.32359956518e-05,-0.000327684916188
300000000.0,6.30687158829e-05,-0.000491532488482,0.999933529318,-0.000940405008474,0.999933529318,-0.000940405008474,6.30687158831e-05,-0.000491532488482
400000000.0,6.27421587749e-05,-0.000655384879126,0.99993259949,-0.00125388517863,0.99993259949,-0.00125388517863,6.27421587747e-05,-0.000655384879126
500000000.0,6.22775737056e-05,-0.000819242920388,0.999931579786,-0.00156737361654,0.999931579786,-0.00156737361654,6.22775737051e-05,-0.000819242920388
600000000.0,6.16857671756e-05,-0.000983107340372,0.99993045937,-0.00188087143442,0.99993045937,-0.00188087143442,6.16857671756e-05,-0.000983107340372
700000000.0,6.09731017347e-05,-0.00114697879236,0.999929231849,-0.00219437963443,0.999929231849,-0.00219437963443,6.09731017347e-05,-0.00114697879236
800000000.0,6.01436837662e-05,-0.0013108578696,0.999927893082,-0.00250789913229,0.999927893082,-0.00250789913229,6.01436837662e-05,-0.0013108578696
900000000.0,5.92003367439e-05,-0.00147474511747,0.99992644021,-0.00282143077498,0.99992644021,-0.00282143077498,5.92003367439e-05,-0.00147474511747
1000000000.0,5.81450936605e-05,-0.00163864103971,0.999924871161,-0.00313497535081,0.999924871161,-0.00313497535081,5.81450936608e-05,-0.00163864103971
1100000000.0,5.69794709742e-05,-0.00180254610553,0.999923184378,-0.00344853359925,0.999923184378,-0.00344853359925,5.69794709744e-05,-0.00180254610553
1200000000.0,5.57046315535e-05,-0.0019664607533,0.999921378656,-0.00376210621677,0.999921378656,-0.00376210621677,5.57046315535e-05,-0.0019664607533
1300000000.0,5.43214870139e-05,-0.00213038539389,0.999919453038,-0.00407569386167,0.999919453038,-0.00407569386167,5.43214870135e-05,-0.00213038539389
1400000000.0,5.28307650518e-05,-0.00229432041402,0.999917406752,-0.00438929715881,0.999917406752,-0.00438929715881,5.28307650516e-05,-0.00229432041402
1500000000.0,5.12330552551e-05,-0.00245826617803,0.999915239158,-0.00470291670237,0.999915239158,-0.00470291670237,5.12330552551e-05,-0.00245826617803
1600000000.0,4.95288412521e-05,-0.00262222303001,0.999912949726,-0.00501655305882,0.999912949726,-0.00501655305882,4.95288412521e-05,-0.00262222303001
1700000000.0,4.77185238335e-05,-0.00278619129512,0.999910538001,-0.00533020676895,0.999910538001,-0.00533020676895,4.77185238335e-05,-0.00278619129512
1800000000.0,4.58024380363e-05,-0.00295017128179,0.999908003599,-0.00564387835071,0.999908003599,-0.00564387835071,4.58024380361e-05,-0.00295017128179
1900000000.0,4.37808659153e-05,-0.00311416328186,0.999905346182,-0.0059575682998,0.999905346182,-0.0059575682998,4.37808659153e-05,-0.00311416328186
2000000000.0,4.1654046351e-05,-0.00327816757254,0.999902565457,-0.00627127709218,0.999902565457,-0.00627127709218,4.1654046351e-05,-0.00327816757254
2100000000.0,3.94221825872e-05,-0.00344218441687,0.999899661165,-0.00658500518479,0.999899661165,-0.00658500518479,3.94221825875e-05,-0.00344218441687
2200000000.0,3.70854482263e-05,-0.00360621406446,0.999896633074,-0.00689875301674,0.999896633074,-0.00689875301674,3.70854482263e-05,-0.00360621406446
2300000000.0,3.46439919265e-05,-0.0037702567525,0.999893480978,-0.00721252101056,0.999893480978,-0.00721252101056,3.46439919263e-05,-0.0037702567525
2400000000.0,3.2097941238e-05,-0.00393431270639,0.999890204689,-0.00752630957312,0.999890204689,-0.00752630957312,3.2097941238e-05,-0.00393431270639
2500000000.0,2.94474056957e-05,-0.00409838214011,0.999886804038,-0.00784011909623,0.999886804038,-0.00784011909623,2.94474056957e-05,-0.00409838214011
2600000000.0,2.66924793431e-05,-0.0042624652571,0.999883278869,-0.00815394995776,0.999883278869,-0.00815394995776,2.66924793431e-05,-0.0042624652571
2700000000.0,2.38332428451e-05,-0.0044265622505,0.999879629038,-0.00846780252203,0.999879629038,-0.00846780252203,2.38332428448e-05,-0.0044265622505
2800000000.0,2.08697652126e-05,-0.00459067330357,0.999875854414,-0.00878167714046,0.999875854414,-0.00878167714046,2.08697652124e-05,-0.00459067330357
2900000000.0,1.78021052948e-05,-0.00475479859042,0.999871954873,-0.00909557415242,0.999871954873,-0.00909557415242,1.78021052948e-05,-0.00475479859042
3000000000.0,1.46303129971e-05,-0.00491893827593,0.9998679303,-0.00940949388531,0.9998679303,-0.00940949388531,1.46303129969e-05,-0.00491893827593
3100000000.0,1.13544303413e-05,-0.0050830925167,0.999863780587,-0.00972343665566,0.999863780587,-0.00972343665566,1.13544303408e-05,-0.0050830925167
3200000000.0,7.9744923569e-06,-0.00524726146066,0.999859505633,-0.0100374027688,0.999859505633,-0.0100374027688,7.9744923569e-06,-0.00524726146066
3300000000.0,4.49052786644e-06,-0.0054114452479,0.999855105342,-0.01035139252,0.999855105342,-0.01035139252,4.49052786644e-06,-0.0054114452479
3400000000.0,9.02560138183e-07,-0.00557564401108,0.999850579622,-0.0106654061946,0.999850579622,-0.0106654061946,9.02560138183e-07,-0.00557564401108
3500000000.0,-2.78939252307e-06,-0.00573985787499,0.999845928387,-0.0109794440681,0.999845928387,-0.0109794440681,-2.78939252263e-06,-0.00573985787499
3600000000.0,-6.58531628384e-06,-0.00590408695757,0.999841151553,-0.011293506407,0.999841151553,-0.011293506407,-6.58531628406e-06,-0.00590408695757
3700000000.0,-1.04852013354e-05,-0.00606833136964,0.99983624904,-0.0116075934687,0.99983624904,-0.0116075934687,-1.04852013351e-05,-0.00606833136964
3800000000.0,-1.44890414969e-05,-0.00623259121542,0.999831220772,-0.0119217055021,0.999831220772,-0.0119217055021,-1.44890414963e-05,-0.00623259121542
3900000000.0,-1.85968338871e-05,-0.00639686659256,0.999826066675,-0.0122358427477,0.999826066675,-0.0122358427477,-1.85968338872e-05,-0.00639686659256
4000000000.0,-2.28085786178e-05,-0.00656115759233,0.999820786678,-0.0125500054379,0.999820786678,-0.0125500054379,-2.28085786178e-05,-0.00656115759233
4100000000.0,-2.71242785209e-05,-0.0067254643,0.999815380711,-0.0128641937973,0.999815380711,-0.0128641937973,-2.71242785208e-05,-0.0067254643
4200000000.0,-3.15439389103e-05,-0.00688978679486,0.999809848707,-0.0131784080429,0.999809848707,-0.0131784080429,-3.15439389103e-05,-0.00688978679486
4300000000.0,-3.60675673682e-05,-0.00705412515041,0.999804190601,-0.0134926483844,0.999804190601,-0.0134926483844,-3.60675673682e-05,-0.00705412515041
4400000000.0,-4.06951735575e-05,-0.00721847943454,0.999798406329,-0.0138069150243,0.999798406329,-0.0138069150243,-4.06951735574e-05,-0.00721847943454
4500000000.0,-4.54267690401e-05,-0.0073828497096,0.999792495828,-0.0141212081581,0.999792495828,-0.0141212081581,-4.54267690402e-05,-0.0073828497096
4600000000.0,-5.02623671286e-05,-0.00754723603279,0.999786459039,-0.0144355279747,0.999786459039,-0.0144355279747,-5.02623671287e-05,-0.00754723603279
4700000000.0,-5.52019827418e-05,-0.00771163845598,0.999780295901,-0.0147498746563,0.999780295901,-0.0147498746563,-5.52019827417e-05,-0.00771163845598
4800000000.0,-6.02456322802e-05,-0.00787605702612,0.999774006356,-0.0150642483789,0.999774006356,-0.0150642483789,-6.02456322805e-05,-0.00787605702612
4900000000.0,-6.53933335076e-05,-0.0080404917851,0.999767590346,-0.015378649312,0.999767590346,-0.015378649312,-6.53933335073e-05,-0.0080404917851
5000000000.0,-7.06451054437e-05,-0.00820494277022,0.999761047815,-0.0156930776195,0.999761047815,-0.0156930776195,-7.06451054437e-05,-0.00820494277022
5100000000.0,-7.60009682748e-05,-0.00836941001393,0.999754378707,-0.0160075334588,0.999754378707,-0.0160075334588,-7.60009682745e-05,-0.00836941001393
5200000000.0,-8.14609432582e-05,-0.00853389354418,0.999747582968,-0.0163220169822,0.999747582968,-0.0163220169822,-8.14609432582e-05,-0.00853389354418
5300000000.0,-8.7025052647e-05,-0.00869839338441,0.999740660543,-0.0166365283357,0.999740660543,-0.0166365283357,-8.7025052647e-05,-0.00869839338441
5400000000.0,-9.26933196113e-05,-0.00886290955385,0.999733611379,-0.0169510676605,0.999733611379,-0.0169510676605,-9.2693319611e-05,-0.00886290955385
5500000000.0,-9.8465768174e-05,-0.00902744206738,0.999726435424,-0.0172656350921,0.999726435424,-0.0172656350921,-9.8465768174e-05,-0.00902744206738
5600000000.0,-0.000104342423148,-0.00919199093578,0.999719132625,-0.0175802307608,0.999719132625,-0.0175802307608,-0.000104342423148,-0.00919199093578
5700000000.0,-0.000110323310072,-0.0093565561656,0.99971170293,-0.0178948547919,0.99971170293,-0.0178948547919,-0.000110323310072,-0.0093565561656
5800000000.0,-0.000116408455166,-0.00952113775974,0.99970414629,-0.0182095073056,0.99970414629,-0.0182095073056,-0.000116408455166,-0.00952113775974
5900000000.0,-0.000122597885274,-0.00968573571695,0.999696462652,-0.0185241884175,0.999696462652,-0.0185241884175,-0.000122597885274,-0.00968573571695
6000000000.0,-0.000128891627823,-0.0098503500323,0.999688651967,-0.0188388982381,0.999688651967,-0.0188388982381,-0.000128891627823,-0.0098503500323
6100000000.0,-0.000135289710775,-0.0100149806971,0.999680714185,-0.0191536368735,0.999680714185,-0.0191536368735,-0.000135289710775,-0.0100149806971
6200000000.0,-0.00014179216259,-0.0101796276989,0.999672649257,-0.0194684044251,0.999672649257,-0.0194684044251,-0.00014179216259,-0.0101796276989
6300000000.0,-0.000148399012191,-0.0103442910221,0.999664457134,-0.0197832009901,0.999664457134,-0.0197832009901,-0.000148399012191,-0.0103442910221
6400000000.0,-0.000155110288925,-0.0105089706472,0.999656137767,-0.0200980266611,0.999656137767,-0.0200980266611,-0.000155110288925,-0.0105089706472
6500000000.0,-0.00016192602253,-0.0106736665515,0.999647691108,-0.0204128815264,0.999647691108,-0.0204128815264,-0.00016192602253,-0.0106736665515
6600000000.0,-0.000168846243111,-0.0108383787088,0.999639117109,-0.0207277656705,0.999639117109,-0.0207277656705,-0.000168846243111,-0.0108383787088
6700000000.0,-0.000175870981101,-0.0110031070897,0.999630415722,-0.0210426791734,0.999630415722,-0.0210426791734,-0.000175870981102,-0.0110031070897
6800000000.0,-0.000183000267246,-0.0111678516616,0.9996215869,-0.0213576221114,0.9996215869,-0.0213576221114,-0.000183000267246,-0.0111678516616
6900000000.0,-0.000190234132568,-0.0113326123888,0.999612630596,-0.0216725945565,0.999612630596,-0.0216725945565,-0.000190234132568,-0.0113326123888
7000000000.0,-0.000197572608348,-0.0114973892325,0.999603546762,-0.0219875965774,0.999603546762,-0.0219875965774,-0.000197572608349,-0.0114973892325
7100000000.0,-0.000205015726105,-0.0116621821507,0.999594335353,-0.0223026282385,0.999594335353,-0.0223026282385,-0.000205015726105,-0.0116621821507
7200000000.0,-0.00021256351757,-0.0118269910986,0.999584996321,-0.0226176896008,0.999584996321,-0.0226176896008,-0.00021256351757,-0.0118269910986
7300000000.0,-0.000220216014666,-0.0119918160284,0.999575529621,-0.0229327807218,0.999575529621,-0.0229327807218,-0.000220216014667,-0.0119918160284
7400000000.0,-0.000227973249498,-0.0121566568897,0.999565935207,-0.0232479016551,0.999565935207,-0.0232479016551,-0.000227973249498,-0.0121566568897
7500000000.0,-0.000235835254318,-0.0123215136288,0.999556213032,-0.0235630524511,0.999556213032,-0.0235630524511,-0.000235835254318,-0.0123215136288
7600000000.0,-0.000243802061528,-0.0124863861897,0.999546363052,-0.0238782331566,0.999546363052,-0.0238782331566,-0.000243802061528,-0.0124863861897
7700000000.0,-0.000251873703648,-0.0126512745135,0.99953638522,-0.0241934438153,0.99953638522,-0.0241934438153,-0.000251873703648,-0.0126512745135
7800000000.0,-0.000260050213307,-0.0128161785387,0.999526279493,-0.0245086844672,0.999526279493,-0.0245086844672,-0.000260050213307,-0.0128161785387
7900000000.0,-0.000268331623232,-0.0129810982012,0.999516045824,-0.0248239551496,0.999516045824,-0.0248239551496,-0.000268331623232,-0.0129810982012
8000000000.0,-0.000276717966226,-0.0131460334344,0.999505684169,-0.0251392558962,0.999505684169,-0.0251392558962,-0.000276717966226,-0.0131460334344
8100000000.0,-0.000285209275162,-0.013310984169,0.999495194484,-0.0254545867378,0.999495194484,-0.0254545867378,-0.000285209275162,-0.013310984169
8200000000.0,-0.000293805582965,-0.0134759503333,0.999484576723,-0.0257699477021,0.999484576723,-0.0257699477021,-0.000293805582966,-0.0134759503333
8300000000.0,-0.000302506922605,-0.0136409318535,0.999473830843,-0.0260853388138,0.999473830843,-0.0260853388138,-0.000302506922606,-0.0136409318535
8400000000.0,-0.000311313327081,-0.013805928653,0.9994629568,-0.0264007600947,0.9994629568,-0.0264007600947,-0.000311313327081,-0.013805928653
8500000000.0,-0.000320224829414,-0.0139709406531,0.99945195455,-0.0267162115637,0.99945195455,-0.0267162115637,-0.000320224829414,-0.0139709406531
8600000000.0,-0.000329241462632,-0.0141359677727,0.999440824048,-0.0270316932367,0.999440824048,-0.0270316932367,-0.000329241462632,-0.0141359677727
8700000000.0,-0.000338363259766,-0.0143010099285,0.999429565252,-0.0273472051272,0.999429565252,-0.0273472051272,-0.000338363259765,-0.0143010099285
8800000000.0,-0.000347590253832,-0.0144660670351,0.999418178117,-0.0276627472455,0.999418178117,-0.0276627472455,-0.000347590253832,-0.0144660670351
8900000000.0,-0.000356922477833,-0.0146311390048,0.999406662602,-0.0279783195996,0.999406662602,-0.0279783195996,-0.000356922477833,-0.0146311390048
9000000000.0,-0.000366359964741,-0.0147962257477,0.999395018661,-0.0282939221946,0.999395018661,-0.0282939221946,-0.000366359964741,-0.0147962257477
9100000000.0,-0.000375902747489,-0.0149613271719,0.999383246253,-0.0286095550332,0.999383246253,-0.0286095550332,-0.000375902747489,-0.0149613271719
9200000000.0,-0.000385550858968,-0.0151264431835,0.999371345335,-0.0289252181153,0.999371345335,-0.0289252181153,-0.000385550858968,-0.0151264431835
9300000000.0,-0.000395304332016,-0.0152915736864,0.999359315865,-0.0292409114384,0.999359315865,-0.0292409114384,-0.000395304332016,-0.0152915736864
9400000000.0,-0.000405163199414,-0.0154567185827,0.999347157798,-0.0295566349978,0.999347157798,-0.0295566349978,-0.000405163199414,-0.0154567185827
9500000000.0,-0.000415127493869,-0.0156218777725,0.999334871094,-0.029872388786,0.999334871094,-0.029872388786,-0.00041512749387,-0.0156218777725
9600000000.0,-0.000425197248021,-0.0157870511537,0.999322455711,-0.0301881727932,0.999322455711,-0.0301881727932,-0.000425197248021,-0.0157870511537
9700000000.0,-0.000435372494423,-0.0159522386228,0.999309911605,-0.0305039870075,0.999309911605,-0.0305039870075,-0.000435372494423,-0.0159522386228
9800000000.0,-0.000445653265547,-0.016117440074,0.999297238736,-0.0308198314144,0.999297238736,-0.0308198314144,-0.000445653265547,-0.016117440074
9900000000.0,-0.000456039593765,-0.0162826553999,0.999284437061,-0.0311357059972,0.999284437061,-0.0311357059972,-0.000456039593765,-0.0162826553999
10000000000.0,-0.000466531511355,-0.0164478844913,0.99927150654,-0.0314516107372,0.99927150654,-0.0314516107372,-0.000466531511355,-0.0164478844913
