freq (GHz),S11_real,S11_imag,S21_real,S21_imag,S12_real,S12_imag,S22_real,S22_imag
100000000.0,0.00070372979691,0.000233296404247,0.999293322463,-0.00147826894749,0.999293322463,-0.00147826894749,0.000703729796909,0.000233296404247
200000000.0,0.000708895739303,0.000466571337282,0.999284658353,-0.00295654026531,0.999284658353,-0.00295654026531,0.000708895739303,0.000466571337282
300000000.0,0.000713513882386,0.000699826803407,0.99927499144,-0.00443482880723,0.99927499144,-0.00443482880723,0.000713513882386,0.000699826803407
400000000.0,0.000718194624834,0.000933061258708,0.999263711101,-0.00591314247203,0.999263711101,-0.00591314247203,0.000718194624834,0.000933061258708
500000000.0,0.00072317279726,0.00116627253938,0.999250582243,-0.00739148680061,0.999250582243,-0.00739148680061,0.000723172797259,0.00116627253938
600000000.0,0.000728568024343,0.00139945829792,0.99923548494,-0.00886986600213,0.99923548494,-0.00886986600213,0.000728568024343,0.00139945829792
700000000.0,0.000734450879448,0.00163261614182,0.999218348288,-0.0103482833952,0.999218348288,-0.0103482833952,0.000734450879448,0.00163261614182
800000000.0,0.000740867017746,0.00186574368968,0.999199126272,-0.0118267416452,0.999199126272,-0.0118267416452,0.000740867017746,0.00186574368968
900000000.0,0.000747847916729,0.00209883859603,0.999177787031,-0.0133052429103,0.999177787031,-0.0133052429103,0.000747847916729,0.00209883859603
1000000000.0,0.000755416317945,0.00233189856326,0.999154307415,-0.0147837889378,0.999154307415,-0.0147837889378,0.000755416317945,0.00233189856326
1100000000.0,0.000763589250707,0.00256492134702,0.999128669965,-0.0162623811333,0.999128669965,-0.0162623811333,0.000763589250707,0.00256492134702
1200000000.0,0.000772379833092,0.00279790475811,0.999100861112,-0.0177410206109,0.999100861112,-0.0177410206109,0.000772379833091,0.00279790475811
1300000000.0,0.000781798404594,0.00303084666296,0.99907087005,-0.0192197082325,0.99907087005,-0.0192197082325,0.000781798404594,0.00303084666296
1400000000.0,0.000791853270336,0.00326374498298,0.99903868799,-0.0206984446377,0.99903868799,-0.0206984446377,0.000791853270336,0.00326374498298
1500000000.0,0.000802551208008,0.0034965976934,0.999004307651,-0.0221772302689,0.999004307651,-0.0221772302689,0.000802551208008,0.0034965976934
1600000000.0,0.000813897823812,0.00372940282181,0.998967722913,-0.0236560653912,0.998967722913,-0.0236560653912,0.000813897823812,0.00372940282181
1700000000.0,0.000825897808888,0.00396215844658,0.998928928556,-0.025134950109,0.998928928556,-0.025134950109,0.000825897808888,0.00396215844658
1800000000.0,0.000838555128209,0.0041948626953,0.998887920071,-0.0266138843807,0.998887920071,-0.0266138843807,0.000838555128209,0.0041948626953
1900000000.0,0.000851873162457,0.00442751374306,0.998844693525,-0.0280928680302,0.998844693525,-0.0280928680302,0.000851873162457,0.00442751374306
2000000000.0,0.0008658548164,0.0046601098109,0.998799245447,-0.0295719007578,0.998799245447,-0.0295719007578,0.0008658548164,0.0046601098109
2100000000.0,0.000880502602954,0.00489264916429,0.998751572748,-0.0310509821492,0.998751572748,-0.0310509821492,0.000880502602955,0.00489264916429
2200000000.0,0.000895818709261,0.00512513011151,0.998701672657,-0.0325301116835,0.998701672657,-0.0325301116835,0.00089581870926,0.00512513011151
2300000000.0,0.000911805049273,0.00535755100236,0.998649542664,-0.0340092887401,0.998649542664,-0.0340092887401,0.000911805049273,0.00535755100236
2400000000.0,0.00092846330606,0.00558991022663,0.998595180484,-0.0354885126053,0.998595180484,-0.0354885126053,0.000928463306061,0.00558991022663
2500000000.0,0.000945794966182,0.00582220621286,0.99853858402,-0.0369677824781,0.99853858402,-0.0369677824781,0.000945794966182,0.00582220621286
2600000000.0,0.00096380134787,0.00605443742705,0.998479751335,-0.0384470974746,0.998479751335,-0.0384470974746,0.00096380134787,0.00605443742705
2700000000.0,0.000982483624347,0.00628660237144,0.998418680631,-0.0399264566334,0.998418680631,-0.0399264566334,0.000982483624347,0.00628660237144
2800000000.0,0.00100184284324,0.00651869958335,0.998355370231,-0.0414058589193,0.998355370231,-0.0414058589193,0.00100184284324,0.00651869958335
2900000000.0,0.00102187994289,0.00675072763407,0.998289818558,-0.0428853032272,0.998289818558,-0.0428853032272,0.00102187994289,0.00675072763407
3000000000.0,0.0010425957661,0.00698268512778,0.998222024129,-0.0443647883859,0.998222024129,-0.0443647883859,0.0010425957661,0.00698268512778
3100000000.0,0.00106399107187,0.00721457070059,0.998151985536,-0.0458443131608,0.998151985536,-0.0458443131608,0.00106399107187,0.00721457070059
3200000000.0,0.00108606654538,0.00744638301948,0.998079701445,-0.0473238762574,0.998079701445,-0.0473238762574,0.00108606654538,0.00744638301948
3300000000.0,0.00110882280658,0.00767812078143,0.99800517058,-0.0488034763236,0.99800517058,-0.0488034763236,0.00110882280658,0.00767812078143
3400000000.0,0.00113226041764,0.00790978271249,0.997928391719,-0.0502831119526,0.997928391719,-0.0502831119526,0.00113226041764,0.00790978271249
3500000000.0,0.00115637988938,0.00814136756692,0.99784936369,-0.051762781685,0.99784936369,-0.051762781685,0.00115637988938,0.00814136756692
3600000000.0,0.0011811816869,0.00837287412639,0.997768085362,-0.0532424840112,0.997768085362,-0.0532424840112,0.0011811816869,0.00837287412639
3700000000.0,0.00120666623446,0.00860430119912,0.997684555644,-0.0547222173733,0.997684555644,-0.0547222173733,0.00120666623447,0.00860430119912
3800000000.0,0.00123283391988,0.00883564761918,0.997598773478,-0.056201980167,0.997598773478,-0.056201980167,0.00123283391988,0.00883564761918
3900000000.0,0.00125968509824,0.0090669122457,0.997510737837,-0.0576817707436,0.997510737837,-0.0576817707436,0.00125968509824,0.0090669122457
4000000000.0,0.00128722009535,0.00929809396219,0.997420447721,-0.0591615874117,0.997420447721,-0.0591615874117,0.00128722009535,0.00929809396219
4100000000.0,0.00131543921072,0.00952919167584,0.997327902157,-0.0606414284383,0.997327902157,-0.0606414284383,0.00131543921072,0.00952919167584
4200000000.0,0.00134434272019,0.00976020431684,0.997233100192,-0.062121292051,0.997233100192,-0.062121292051,0.00134434272019,0.00976020431684
4300000000.0,0.00137393087838,0.00999113083776,0.997136040896,-0.0636011764389,0.997136040896,-0.0636011764389,0.00137393087838,0.00999113083776
4400000000.0,0.00140420392079,0.0102219702129,0.997036723354,-0.0650810797544,0.997036723354,-0.0650810797544,0.00140420392079,0.0102219702129
4500000000.0,0.00143516206572,0.0104527214379,0.996935146673,-0.0665610001138,0.996935146673,-0.0665610001138,0.00143516206572,0.0104527214379
4600000000.0,0.00146680551603,0.0106833835286,0.99683130997,-0.0680409355992,0.99683130997,-0.0680409355992,0.00146680551603,0.0106833835286
4700000000.0,0.0014991344607,0.0109139555211,0.99672521238,-0.0695208842591,0.99672521238,-0.0695208842591,0.0014991344607,0.0109139555211
4800000000.0,0.00153214907622,0.0111444364711,0.996616853049,-0.0710008441099,0.996616853049,-0.0710008441099,0.00153214907622,0.0111444364711
4900000000.0,0.00156584952793,0.011374825453,0.996506231136,-0.0724808131365,0.996506231136,-0.0724808131365,0.00156584952793,0.011374825453
5000000000.0,0.00160023597113,0.0116051215597,0.996393345809,-0.0739607892937,0.996393345809,-0.0739607892937,0.00160023597113,0.0116051215597
5100000000.0,0.00163530855223,0.0118353239021,0.996278196248,-0.0754407705068,0.996278196248,-0.0754407705068,0.00163530855223,0.0118353239021
5200000000.0,0.00167106740962,0.0120654316084,0.99616078164,-0.0769207546727,0.99616078164,-0.0769207546727,0.00167106740962,0.0120654316084
5300000000.0,0.00170751267469,0.0122954438241,0.996041101184,-0.0784007396606,0.996041101184,-0.0784007396606,0.00170751267469,0.0122954438241
5400000000.0,0.00174464447255,0.012525359711,0.995919154083,-0.0798807233128,0.995919154083,-0.0798807233128,0.00174464447255,0.012525359711
5500000000.0,0.00178246292283,0.0127551784469,0.995794939549,-0.0813607034457,0.995794939549,-0.0813607034457,0.00178246292283,0.0127551784469
5600000000.0,0.00182096814036,0.0129848992255,0.995668456801,-0.0828406778502,0.995668456801,-0.0828406778502,0.00182096814036,0.0129848992255
5700000000.0,0.00186016023584,0.0132145212557,0.995539705065,-0.0843206442926,0.995539705065,-0.0843206442926,0.00186016023584,0.0132145212557
5800000000.0,0.0019000393164,0.0134440437613,0.99540868357,-0.0858006005153,0.99540868357,-0.0858006005153,0.0019000393164,0.0134440437613
5900000000.0,0.00194060548614,0.0136734659802,0.995275391553,-0.0872805442374,0.995275391553,-0.0872805442374,0.00194060548614,0.0136734659802
6000000000.0,0.0019818588467,0.0139027871649,0.995139828256,-0.0887604731552,0.995139828256,-0.0887604731552,0.0019818588467,0.0139027871649
6100000000.0,0.00202379949766,0.0141320065813,0.995001992924,-0.0902403849429,0.995001992924,-0.0902403849429,0.00202379949766,0.0141320065813
6200000000.0,0.00206642753701,0.0143611235086,0.994861884809,-0.0917202772532,0.994861884809,-0.0917202772532,0.00206642753701,0.0143611235086
6300000000.0,0.00210974306155,0.014590137239,0.994719503165,-0.0932001477179,0.994719503165,-0.0932001477179,0.00210974306155,0.014590137239
6400000000.0,0.00215374616731,0.0148190470775,0.994574847251,-0.0946799939482,0.994574847251,-0.0946799939482,0.00215374616731,0.0148190470775
6500000000.0,0.00219843694983,0.0150478523413,0.99442791633,-0.0961598135354,0.99442791633,-0.0961598135354,0.00219843694983,0.0150478523413
6600000000.0,0.00224381550456,0.0152765523594,0.994278709667,-0.0976396040513,0.994278709667,-0.0976396040513,0.00224381550456,0.0152765523594
6700000000.0,0.00228988192713,0.0155051464727,0.994127226533,-0.0991193630487,0.994127226533,-0.0991193630487,0.00228988192713,0.0155051464727
6800000000.0,0.00233663631366,0.0157336340333,0.9939734662,-0.100599088062,0.9939734662,-0.100599088062,0.00233663631366,0.0157336340333
6900000000.0,0.00238407876102,0.0159620144043,0.993817427944,-0.102078776607,0.993817427944,-0.102078776607,0.00238407876102,0.0159620144043
7000000000.0,0.00243220936711,0.0161902869597,0.993659111043,-0.103558426181,0.993659111043,-0.103558426181,0.00243220936711,0.0161902869597
7100000000.0,0.00248102823106,0.0164184510837,0.993498514779,-0.105038034268,0.993498514779,-0.105038034268,0.00248102823106,0.0164184510837
7200000000.0,0.00253053545349,0.0166465061708,0.993335638436,-0.106517598329,0.993335638436,-0.106517598329,0.00253053545349,0.0166465061708
7300000000.0,0.00258073113672,0.0168744516253,0.9931704813,-0.107997115813,0.9931704813,-0.107997115813,0.00258073113672,0.0168744516253
7400000000.0,0.00263161538494,0.0171022868611,0.99300304266,-0.109476584151,0.99300304266,-0.109476584151,0.00263161538494,0.0171022868611
7500000000.0,0.00268318830443,0.0173300113015,0.992833321809,-0.110956000758,0.992833321809,-0.110956000758,0.00268318830443,0.0173300113015
7600000000.0,0.00273545000373,0.0175576243789,0.992661318038,-0.112435363035,0.992661318038,-0.112435363035,0.00273545000373,0.0175576243789
7700000000.0,0.00278840059382,0.0177851255343,0.992487030644,-0.113914668366,0.992487030644,-0.113914668366,0.00278840059382,0.0177851255343
7800000000.0,0.00284204018824,0.0180125142175,0.992310458926,-0.115393914121,0.992310458926,-0.115393914121,0.00284204018824,0.0180125142175
7900000000.0,0.0028963689033,0.0182397898866,0.992131602182,-0.116873097654,0.992131602182,-0.116873097654,0.0028963689033,0.0182397898866
8000000000.0,0.00295138685815,0.0184669520075,0.991950459715,-0.118352216307,0.991950459715,-0.118352216307,0.00295138685815,0.0184669520075
8100000000.0,0.00300709417498,0.0186940000542,0.991767030829,-0.119831267406,0.991767030829,-0.119831267406,0.00300709417498,0.0186940000542
8200000000.0,0.00306349097913,0.0189209335084,0.991581314829,-0.121310248265,0.991581314829,-0.121310248265,0.00306349097913,0.0189209335084
8300000000.0,0.00312057739917,0.0191477518589,0.991393311023,-0.122789156183,0.991393311023,-0.122789156183,0.00312057739917,0.0191477518589
8400000000.0,0.00317835356709,0.019374454602,0.991203018721,-0.124267988446,0.991203018721,-0.124267988446,0.00317835356709,0.019374454602
8500000000.0,0.00323681961833,0.0196010412405,0.991010437233,-0.125746742326,0.991010437233,-0.125746742326,0.00323681961833,0.0196010412405
8600000000.0,0.00329597569195,0.0198275112845,0.990815565874,-0.127225415086,0.990815565874,-0.127225415086,0.00329597569195,0.0198275112845
8700000000.0,0.00335582193068,0.0200538642501,0.990618403956,-0.128704003971,0.990618403956,-0.128704003971,0.00335582193068,0.0200538642501
8800000000.0,0.00341635848104,0.0202800996601,0.990418950798,-0.130182506218,0.990418950798,-0.130182506218,0.00341635848104,0.0202800996601
8900000000.0,0.00347758549342,0.0205062170432,0.990217205716,-0.13166091905,0.990217205716,-0.13166091905,0.00347758549342,0.0205062170432
9000000000.0,0.00353950312218,0.0207322159341,0.990013168031,-0.133139239677,0.990013168031,-0.133139239677,0.00353950312218,0.0207322159341
9100000000.0,0.0036021115257,0.0209580958733,0.989806837064,-0.1346174653,0.989806837064,-0.1346174653,0.0036021115257,0.0209580958733
9200000000.0,0.00366541086648,0.0211838564068,0.989598212139,-0.136095593107,0.989598212139,-0.136095593107,0.00366541086648,0.0211838564068
9300000000.0,0.00372940131119,0.0214094970859,0.989387292578,-0.137573620274,0.989387292578,-0.137573620274,0.00372940131119,0.0214094970859
9400000000.0,0.0037940830308,0.0216350174671,0.98917407771,-0.139051543966,0.98917407771,-0.139051543966,0.0037940830308,0.0216350174671
9500000000.0,0.00385945620055,0.0218604171118,0.988958566862,-0.140529361337,0.988958566862,-0.140529361337,0.00385945620055,0.0218604171118
9600000000.0,0.00392552100009,0.0220856955864,0.988740759362,-0.142007069532,0.988740759362,-0.142007069532,0.00392552100009,0.0220856955864
9700000000.0,0.00399227761351,0.0223108524619,0.988520654543,-0.143484665682,0.988520654543,-0.143484665682,0.00399227761351,0.0223108524619
9800000000.0,0.0040597262294,0.0225358873136,0.988298251737,-0.144962146911,0.988298251737,-0.144962146911,0.0040597262294,0.0225358873136
9900000000.0,0.00412786704091,0.0227607997212,0.988073550278,-0.146439510329,0.988073550278,-0.146439510329,0.00412786704091,0.0227607997212
10000000000.0,0.00419670024578,0.0229855892685,0.987846549501,-0.147916753038,0.987846549501,-0.147916753038,0.00419670024578,0.0229855892685
