freq (GHz),S11_real,S11_imag,S21_real,S21_imag,S12_real,S12_imag,S22_real,S22_imag
100000000.0,0.00329730845682,0.00148841160746,0.996696446065,-0.00391716312472,0.996696446065,-0.00391716312472,0.00329730845682,0.00148841160746
200000000.0,0.00333565539332,0.00297649483191,0.99664694785,-0.00783404009938,0.99664694785,-0.00783404009938,0.00333565539332,0.00297649483191
300000000.0,0.00337992094967,0.00446424705774,0.996585624408,-0.011750652749,0.996585624408,-0.011750652749,0.00337992094967,0.00446424705774
400000000.0,0.00343295288313,0.00595160380048,0.996509626932,-0.0156669539239,0.996509626932,-0.0156669539239,0.00343295288313,0.00595160380048
500000000.0,0.00349584544352,0.00743848637947,0.996417859909,-0.0195828786451,0.996417859909,-0.0195828786451,0.00349584544352,0.00743848637947
600000000.0,0.00356915427218,0.00892480995414,0.996309766239,-0.0234983533673,0.996309766239,-0.0234983533673,0.00356915427218,0.00892480995414
700000000.0,0.00365320516738,0.010410486405,0.996185018489,-0.0274132994889,0.996185018489,-0.0274132994889,0.00365320516738,0.010410486405
800000000.0,0.0037482067447,0.011895425668,0.99604340624,-0.0313276350643,0.99604340624,-0.0313276350643,0.0037482067447,0.011895425668
900000000.0,0.00385430058535,0.0133795364502,0.995884785953,-0.0352412757708,0.995884785953,-0.0352412757708,0.00385430058535,0.0133795364502
1000000000.0,0.00397158664807,0.0148627266539,0.995709055564,-0.0391541355103,0.995709055564,-0.0391541355103,0.00397158664807,0.0148627266539
1100000000.0,0.00410013739123,0.0163449036464,0.99551614037,-0.0430661268102,0.99551614037,-0.0430661268102,0.00410013739123,0.0163449036464
1200000000.0,0.0042400061854,0.0178259744414,0.995305984623,-0.0469771611064,0.995305984623,-0.0469771611064,0.0042400061854,0.0178259744414
1300000000.0,0.00439123260481,0.0193058458266,0.995078546245,-0.0508871489505,0.995078546245,-0.0508871489505,0.00439123260481,0.0193058458266
1400000000.0,0.00455384590462,0.0207844244566,0.994833793355,-0.054796000168,0.994833793355,-0.054796000168,0.00455384590462,0.0207844244566
1500000000.0,0.00472786739013,0.0222616169231,0.994571701907,-0.0587036239817,0.994571701907,-0.0587036239817,0.00472786739013,0.0222616169231
1600000000.0,0.00491331208061,0.023737329809,0.994292254026,-0.0626099291107,0.994292254026,-0.0626099291107,0.00491331208061,0.023737329809
1700000000.0,0.00511018990845,0.025211469732,0.993995436819,-0.066514823852,0.993995436819,-0.066514823852,0.00511018990845,0.025211469732
1800000000.0,0.00531850660291,0.026683943379,0.99368124149,-0.0704182161479,0.99368124149,-0.0704182161479,0.00531850660291,0.026683943379
1900000000.0,0.00553826435431,0.0281546575352,0.993349662681,-0.0743200136438,0.993349662681,-0.0743200136438,0.00553826435431,0.0281546575352
2000000000.0,0.00576946232183,0.0296235191089,0.993000697969,-0.0782201237374,0.993000697969,-0.0782201237374,0.00576946232183,0.0296235191089
2100000000.0,0.00601209702779,0.0310904351524,0.992634347474,-0.082118453622,0.992634347474,-0.082118453622,0.00601209702779,0.0310904351524
2200000000.0,0.00626616266811,0.0325553128801,0.992250613548,-0.0860149103243,0.992250613548,-0.0860149103243,0.00626616266811,0.0325553128801
2300000000.0,0.00653165135973,0.034018059685,0.991849500537,-0.0899094007387,0.991849500537,-0.0899094007387,0.00653165135973,0.034018059685
2400000000.0,0.0068085533402,0.0354785831533,0.991431014577,-0.093801831657,0.991431014577,-0.093801831657,0.0068085533402,0.0354785831533
2500000000.0,0.00709685713021,0.0369367910773,0.990995163439,-0.0976921097966,0.990995163439,-0.0976921097966,0.00709685713021,0.0369367910773
2600000000.0,0.00739654966746,0.0383925914682,0.990541956395,-0.101580141826,0.990541956395,-0.101580141826,0.00739654966746,0.0383925914682
2700000000.0,0.00770761641778,0.0398458925663,0.990071404109,-0.105465834386,0.990071404109,-0.105465834386,0.00770761641778,0.0398458925663
2800000000.0,0.00803004146815,0.0412966028528,0.989583518547,-0.109349094114,0.989583518547,-0.109349094114,0.00803004146815,0.0412966028528
2900000000.0,0.00836380760528,0.0427446310587,0.9890783129,-0.113229827662,0.9890783129,-0.113229827662,0.00836380760528,0.0427446310587
3000000000.0,0.00870889638252,0.0441898861744,0.988555801518,-0.117107941717,0.988555801518,-0.117107941717,0.00870889638252,0.0441898861744
3100000000.0,0.0090652881771,0.045632277459,0.988015999858,-0.120983343015,0.988015999858,-0.120983343015,0.0090652881771,0.045632277459
3200000000.0,0.00943296223962,0.0470717144486,0.98745892443,-0.124855938362,0.98745892443,-0.124855938362,0.00943296223962,0.0470717144486
3300000000.0,0.00981189673707,0.0485081069645,0.986884592762,-0.128725634646,0.986884592762,-0.128725634646,0.00981189673707,0.0485081069645
3400000000.0,0.0102020687904,0.0499413651214,0.98629302336,-0.132592338855,0.98629302336,-0.132592338855,0.0102020687904,0.0499413651214
3500000000.0,0.0106034545075,0.051371399335,0.985684235678,-0.136455958089,0.985684235678,-0.136455958089,0.0106034545075,0.051371399335
3600000000.0,0.0110160290131,0.0527981203295,0.98505825009,-0.140316399574,0.98505825009,-0.140316399574,0.0110160290131,0.0527981203295
3700000000.0,0.011439766474,0.054221439145,0.984415087864,-0.144173570676,0.984415087864,-0.144173570676,0.011439766474,0.054221439145
3800000000.0,0.0118746401234,0.0556412671448,0.983754771142,-0.148027378913,0.983754771142,-0.148027378913,0.0118746401234,0.0556412671448
3900000000.0,0.0123206222816,0.057057516022,0.983077322916,-0.151877731965,0.983077322916,-0.151877731965,0.0123206222816,0.057057516022
4000000000.0,0.0127776843755,0.0584700978071,0.982382767017,-0.155724537691,0.982382767017,-0.155724537691,0.0127776843755,0.0584700978071
4100000000.0,0.0132457969557,0.0598789248741,0.981671128091,-0.159567704134,0.981671128091,-0.159567704134,0.0132457969557,0.0598789248741
4200000000.0,0.0137249297132,0.0612839099473,0.980942431588,-0.163407139535,0.980942431588,-0.163407139535,0.0137249297132,0.0612839099473
4300000000.0,0.0142150514938,0.0626849661082,0.980196703751,-0.167242752344,0.980196703751,-0.167242752344,0.0142150514938,0.0626849661082
4400000000.0,0.0147161303119,0.0640820068016,0.979433971595,-0.17107445123,0.979433971595,-0.17107445123,0.0147161303119,0.0640820068016
4500000000.0,0.0152281333635,0.0654749458421,0.978654262904,-0.174902145089,0.978654262904,-0.174902145089,0.0152281333635,0.0654749458421
4600000000.0,0.0157510270383,0.0668636974201,0.977857606213,-0.178725743056,0.977857606213,-0.178725743056,0.0157510270383,0.0668636974201
4700000000.0,0.0162847769309,0.0682481761085,0.977044030804,-0.182545154514,0.977044030804,-0.182545154514,0.0162847769309,0.0682481761085
4800000000.0,0.0168293478514,0.0696282968684,0.97621356669,-0.186360289102,0.97621356669,-0.186360289102,0.0168293478514,0.0696282968684
4900000000.0,0.0173847038357,0.0710039750551,0.975366244609,-0.190171056724,0.975366244609,-0.190171056724,0.0173847038357,0.0710039750551
5000000000.0,0.0179508081554,0.0723751264243,0.974502096017,-0.193977367562,0.974502096017,-0.193977367562,0.0179508081554,0.0723751264243
5100000000.0,0.0185276233269,0.0737416671379,0.973621153075,-0.197779132076,0.973621153075,-0.197779132076,0.0185276233269,0.0737416671379
5200000000.0,0.0191151111201,0.0751035137696,0.972723448643,-0.201576261022,0.972723448643,-0.201576261022,0.0191151111201,0.0751035137696
5300000000.0,0.0197132325675,0.076460583311,0.971809016274,-0.205368665453,0.971809016274,-0.205368665453,0.0197132325675,0.076460583311
5400000000.0,0.0203219479722,0.0778127931769,0.970877890201,-0.209156256731,0.970877890201,-0.209156256731,0.0203219479722,0.0778127931769
5500000000.0,0.0209412169163,0.0791600612112,0.969930105338,-0.212938946532,0.969930105338,-0.212938946532,0.0209412169163,0.0791600612112
5600000000.0,0.0215709982683,0.0805023056923,0.968965697264,-0.216716646856,0.968965697264,-0.216716646856,0.0215709982683,0.0805023056923
5700000000.0,0.0222112501914,0.0818394453383,0.967984702222,-0.220489270035,0.967984702222,-0.220489270035,0.0222112501914,0.0818394453383
5800000000.0,0.0228619301503,0.0831713993131,0.966987157109,-0.224256728736,0.966987157109,-0.224256728736,0.0228619301503,0.0831713993131
5900000000.0,0.0235229949195,0.0844980872309,0.965973099472,-0.228018935974,0.965973099472,-0.228018935974,0.0235229949195,0.0844980872309
6000000000.0,0.0241944005896,0.0858194291622,0.964942567498,-0.231775805116,0.964942567498,-0.231775805116,0.0241944005896,0.0858194291622
6100000000.0,0.0248761025751,0.0871353456385,0.96389560001,-0.235527249885,0.96389560001,-0.235527249885,0.0248761025751,0.0871353456385
6200000000.0,0.0255680556212,0.0884457576576,0.962832236459,-0.239273184375,0.962832236459,-0.239273184375,0.0255680556212,0.0884457576576
6300000000.0,0.0262702138107,0.0897505866888,0.961752516919,-0.24301352305,0.961752516919,-0.24301352305,0.0262702138107,0.0897505866888
6400000000.0,0.0269825305711,0.0910497546778,0.960656482079,-0.246748180751,0.960656482079,-0.246748180751,0.0269825305711,0.0910497546778
6500000000.0,0.0277049586811,0.0923431840514,0.95954417324,-0.25047707271,0.95954417324,-0.25047707271,0.0277049586811,0.0923431840514
6600000000.0,0.0284374502777,0.0936307977228,0.958415632303,-0.254200114546,0.958415632303,-0.254200114546,0.0284374502777,0.0936307977228
6700000000.0,0.0291799568626,0.0949125190963,0.957270901768,-0.257917222279,0.957270901768,-0.257917222279,0.0291799568626,0.0949125190963
6800000000.0,0.0299324293091,0.0961882720718,0.956110024727,-0.261628312331,0.956110024727,-0.261628312331,0.0299324293091,0.0961882720718
6900000000.0,0.0306948178685,0.0974579810497,0.954933044854,-0.265333301536,0.954933044854,-0.265333301536,0.0306948178685,0.0974579810497
7000000000.0,0.031467072177,0.0987215709353,0.953740006403,-0.269032107143,0.953740006403,-0.269032107143,0.031467072177,0.0987215709353
7100000000.0,0.0322491412619,0.0999789671437,0.952530954202,-0.272724646822,0.952530954202,-0.272724646822,0.0322491412619,0.0999789671437
7200000000.0,0.0330409735487,0.101230095604,0.951305933644,-0.27641083867,0.951305933644,-0.27641083867,0.0330409735487,0.101230095604
7300000000.0,0.0338425168668,0.102474882763,0.950064990681,-0.280090601218,0.950064990681,-0.280090601218,0.0338425168668,0.102474882763
7400000000.0,0.0346537184568,0.103713255592,0.948808171822,-0.283763853434,0.948808171822,-0.283763853434,0.0346537184568,0.103713255592
7500000000.0,0.0354745249768,0.104945141588,0.947535524121,-0.287430514728,0.947535524121,-0.287430514728,0.0354745249768,0.104945141588
7600000000.0,0.0363048825084,0.10617046878,0.946247095176,-0.291090504961,0.946247095176,-0.291090504961,0.0363048825084,0.10617046878
7700000000.0,0.037144736564,0.10738916573,0.944942933121,-0.294743744445,0.944942933121,-0.294743744445,0.037144736564,0.10738916573
7800000000.0,0.0379940320926,0.108601161544,0.943623086617,-0.298390153951,0.943623086617,-0.298390153951,0.0379940320926,0.108601161544
7900000000.0,0.0388527134866,0.109806385867,0.942287604852,-0.302029654713,0.942287604852,-0.302029654713,0.0388527134866,0.109806385867
8000000000.0,0.0397207245883,0.111004768894,0.940936537529,-0.305662168434,0.940936537529,-0.305662168434,0.0397207245883,0.111004768894
8100000000.0,0.0405980086961,0.112196241371,0.939569934863,-0.309287617289,0.939569934863,-0.309287617289,0.0405980086961,0.112196241371
8200000000.0,0.0414845085713,0.113380734597,0.938187847573,-0.312905923929,0.938187847573,-0.312905923929,0.0414845085713,0.113380734597
8300000000.0,0.0423801664445,0.114558180431,0.93679032688,-0.316517011486,0.93679032688,-0.316517011486,0.0423801664445,0.114558180431
8400000000.0,0.0432849240218,0.115728511296,0.935377424494,-0.320120803581,0.935377424494,-0.320120803581,0.0432849240218,0.115728511296
8500000000.0,0.0441987224916,0.116891660178,0.933949192614,-0.323717224322,0.933949192614,-0.323717224322,0.0441987224916,0.116891660178
8600000000.0,0.0451215025309,0.118047560633,0.932505683918,-0.327306198311,0.932505683918,-0.327306198311,0.0451215025309,0.118047560633
8700000000.0,0.046053204312,0.119196146792,0.931046951559,-0.330887650652,0.931046951559,-0.330887650652,0.046053204312,0.119196146792
8800000000.0,0.0469937675088,0.12033735336,0.929573049157,-0.334461506946,0.929573049157,-0.334461506946,0.0469937675088,0.12033735336
8900000000.0,0.0479431313031,0.121471115621,0.928084030796,-0.338027693303,0.928084030796,-0.338027693303,0.0479431313031,0.121471115621
9000000000.0,0.0489012343915,0.122597369444,0.926579951012,-0.341586136343,0.926579951012,-0.341586136343,0.0489012343915,0.122597369444
9100000000.0,0.0498680149918,0.123716051282,0.925060864792,-0.345136763198,0.925060864792,-0.345136763198,0.0498680149918,0.123716051283
9200000000.0,0.0508434108493,0.124827098178,0.923526827566,-0.348679501518,0.923526827566,-0.348679501518,0.0508434108493,0.124827098178
9300000000.0,0.0518273592434,0.125930447765,0.921977895201,-0.352214279473,0.921977895201,-0.352214279473,0.0518273592434,0.125930447765
9400000000.0,0.0528197969942,0.127026038272,0.920414123994,-0.355741025757,0.920414123994,-0.355741025757,0.0528197969942,0.127026038272
9500000000.0,0.0538206604689,0.128113808526,0.918835570666,-0.359259669592,0.918835570666,-0.359259669592,0.0538206604689,0.128113808526
9600000000.0,0.0548298855883,0.129193697954,0.917242292355,-0.362770140727,0.917242292355,-0.362770140727,0.0548298855883,0.129193697954
9700000000.0,0.0558474078335,0.130265646585,0.915634346611,-0.36627236945,0.915634346611,-0.36627236945,0.0558474078335,0.130265646585
9800000000.0,0.0568731622521,0.131329595055,0.914011791391,-0.36976628658,0.914011791391,-0.36976628658,0.0568731622521,0.131329595055
9900000000.0,0.0579070834651,0.132385484609,0.912374685048,-0.373251823479,0.912374685048,-0.373251823479,0.0579070834651,0.132385484609
10000000000.0,0.058949105673,0.133433257101,0.910723086328,-0.376728912051,0.910723086328,-0.376728912051,0.058949105673,0.133433257101
