freq (GHz),S11_real,S11_imag,S21_real,S21_imag,S12_real,S12_imag,S22_real,S22_imag
100000000.0,0.0100976386647,0.00353154936105,0.989895209854,-0.00622475509967,0.989895209854,-0.00622475509967,0.0100976386647,0.00353154936105
200000000.0,0.0102295722466,0.00706116015627,0.989749846057,-0.0124476082785,0.989749846057,-0.0124476082785,0.0102295722466,0.00706116015627
300000000.0,0.010388303264,0.0105887139177,0.989570404905,-0.0186684699352,0.989570404905,-0.0186684699352,0.010388303264,0.0105887139177
400000000.0,0.0105824691259,0.0141137489368,0.989348247483,-0.0248869020124,0.989348247483,-0.0248869020124,0.0105824691259,0.0141137489368
500000000.0,0.0108153651985,0.0176357244226,0.98908007658,-0.0311023847159,0.98908007658,-0.0311023847159,0.0108153651985,0.0176357244226
600000000.0,0.0110886398288,0.0211540653106,0.988764241676,-0.0373143622254,0.988764241676,-0.0373143622254,0.0110886398288,0.0211540653106
700000000.0,0.011403233551,0.0246681785012,0.988399799734,-0.0435222593942,0.988399799734,-0.0435222593942,0.011403233551,0.0246681785012
800000000.0,0.0117597218189,0.0281774605126,0.98798617248,-0.0497254896794,0.98798617248,-0.0497254896794,0.0117597218189,0.0281774605126
900000000.0,0.0121584675908,0.0316813016962,0.987522993819,-0.0559234595396,0.987522993819,-0.0559234595396,0.0121584675908,0.0316813016962
1000000000.0,0.0125996986737,0.0351790888252,0.9870100325,-0.0621155711526,0.9870100325,-0.0621155711526,0.0125996986737,0.0351790888252
1100000000.0,0.0130835507272,0.038670206821,0.986447149116,-0.0683012242373,0.986447149116,-0.0683012242373,0.0130835507272,0.038670206821
1200000000.0,0.013610092906,0.0421540399837,0.985834270461,-0.0744798173568,0.985834270461,-0.0744798173568,0.013610092906,0.0421540399837
1300000000.0,0.0141793440131,0.0456299729188,0.98517137339,-0.0806507489026,0.98517137339,-0.0806507489026,0.0141793440131,0.0456299729188
1400000000.0,0.0147912831401,0.0490973912676,0.984458474173,-0.0868134178712,0.984458474173,-0.0868134178712,0.0147912831401,0.0490973912676
1500000000.0,0.0154458569432,0.0525556823061,0.983695621226,-0.0929672245012,0.983695621226,-0.0929672245012,0.0154458569432,0.0525556823061
1600000000.0,0.0161429847792,0.0560042354514,0.982882889982,-0.0991115708111,0.982882889982,-0.0991115708111,0.0161429847792,0.0560042354514
1700000000.0,0.0168825624336,0.0594424427023,0.982020379156,-0.105245861067,0.982020379156,-0.105245861067,0.0168825624336,0.0594424427023
1800000000.0,0.0176644648955,0.0628696990305,0.981108207983,-0.111369502196,0.981108207983,-0.111369502196,0.0176644648955,0.0628696990305
1900000000.0,0.0184885484701,0.0662854027348,0.980146514101,-0.117481904161,0.980146514101,-0.117481904161,0.0184885484701,0.0662854027348
2000000000.0,0.0193546524209,0.0696889557654,0.979135451912,-0.123582480302,0.979135451912,-0.123582480302,0.0193546524209,0.0696889557654
2100000000.0,0.0202626002721,0.073079764026,0.978075191284,-0.129670647651,0.978075191284,-0.129670647651,0.0202626002721,0.073079764026
2200000000.0,0.021212200861,0.0764572376558,0.976965916499,-0.135745827233,0.976965916499,-0.135745827233,0.021212200861,0.0764572376558
2300000000.0,0.0222032492044,0.0798207912961,0.975807825388,-0.141807444338,0.975807825388,-0.141807444338,0.0222032492044,0.0798207912961
2400000000.0,0.0232355272235,0.0831698443435,0.974601128607,-0.147854928789,0.974601128607,-0.147854928789,0.0232355272235,0.0831698443435
2500000000.0,0.0243088043622,0.0865038211906,0.973346049022,-0.153887715188,0.973346049022,-0.153887715188,0.0243088043622,0.0865038211906
2600000000.0,0.0254228381212,0.0898221514568,0.972042821177,-0.159905243162,0.972042821177,-0.159905243162,0.0254228381212,0.0898221514568
2700000000.0,0.0265773745286,0.0931242702097,0.970691690818,-0.165906957585,0.970691690818,-0.165906957585,0.0265773745286,0.0931242702097
2800000000.0,0.0277721485599,0.096409618177,0.969292914486,-0.171892308802,0.969292914486,-0.171892308802,0.0277721485599,0.096409618177
2900000000.0,0.029006884517,0.0996776419511,0.967846759126,-0.177860752836,0.967846759126,-0.177860752836,0.029006884517,0.0996776419511
3000000000.0,0.0302812963772,0.102927794186,0.96635350175,-0.183811751595,0.96635350175,-0.183811751595,0.0302812963772,0.102927794186
3100000000.0,0.0315950881156,0.106159533787,0.964813429108,-0.189744773062,0.964813429108,-0.189744773062,0.0315950881156,0.106159533787
3200000000.0,0.0329479540081,0.109372326093,0.963226837389,-0.195659291487,0.963226837389,-0.195659291487,0.0329479540081,0.109372326093
3300000000.0,0.034339578918,0.112565643051,0.961594031938,-0.201554787564,0.961594031938,-0.201554787564,0.034339578918,0.112565643051
3400000000.0,0.0357696385695,0.11573896339,0.959915326975,-0.207430748606,0.959915326975,-0.207430748606,0.0357696385695,0.11573896339
3500000000.0,0.0372377998108,0.118891772776,0.958191045342,-0.213286668711,0.958191045342,-0.213286668711,0.0372377998108,0.118891772776
3600000000.0,0.0387437208692,0.122023563979,0.956421518243,-0.219122048922,0.956421518243,-0.219122048922,0.0387437208692,0.122023563979
3700000000.0,0.0402870515983,0.125133837014,0.954607084997,-0.224936397383,0.954607084997,-0.224936397383,0.0402870515983,0.125133837014
3800000000.0,0.0418674337205,0.12822209929,0.952748092799,-0.230729229482,0.952748092799,-0.230729229482,0.0418674337205,0.12822209929
3900000000.0,0.043484501065,0.131287865748,0.950844896482,-0.236500067996,0.950844896482,-0.236500067996,0.043484501065,0.131287865748
4000000000.0,0.0451378798019,0.134330658992,0.94889785828,-0.242248443224,0.94889785828,-0.242248443224,0.0451378798019,0.134330658992
4100000000.0,0.046827188673,0.137350009418,0.946907347601,-0.247973893114,0.946907347601,-0.247973893114,0.046827188673,0.137350009418
4200000000.0,0.0485520392213,0.14034545533,0.944873740798,-0.25367596339,0.944873740798,-0.25367596339,0.0485520392213,0.14034545533
4300000000.0,0.0503120360172,0.143316543056,0.94279742094,-0.259354207663,0.94279742094,-0.259354207663,0.0503120360172,0.143316543056
4400000000.0,0.052106776884,0.14626282706,0.940678777589,-0.265008187544,0.940678777589,-0.265008187544,0.052106776884,0.14626282706
4500000000.0,0.0539358531215,0.149183870038,0.938518206576,-0.270637472749,0.938518206576,-0.270637472749,0.0539358531215,0.149183870038
4600000000.0,0.0557988497288,0.152079243021,0.936316109779,-0.276241641196,0.936316109779,-0.276241641196,0.0557988497288,0.152079243021
4700000000.0,0.0576953456258,0.154948525461,0.9340728949,-0.281820279095,0.9340728949,-0.281820279095,0.0576953456258,0.154948525461
4800000000.0,0.0596249138737,0.157791305321,0.931788975248,-0.28737298104,0.931788975248,-0.28737298104,0.0596249138737,0.157791305321
4900000000.0,0.0615871218951,0.160607179148,0.929464769514,-0.292899350085,0.929464769514,-0.292899350085,0.0615871218951,0.160607179148
5000000000.0,0.0635815316927,0.163395752153,0.927100701555,-0.29839899782,0.927100701555,-0.29839899782,0.0635815316927,0.163395752153
5100000000.0,0.0656077000675,0.166156638275,0.924697200177,-0.303871544439,0.924697200177,-0.303871544439,0.0656077000675,0.166156638275
5200000000.0,0.0676651788362,0.168889460243,0.922254698915,-0.309316618807,0.922254698915,-0.309316618807,0.0676651788362,0.168889460243
5300000000.0,0.0697535150478,0.171593849637,0.919773635818,-0.314733858511,0.919773635818,-0.314733858511,0.0697535150478,0.171593849637
5400000000.0,0.0718722511988,0.174269446931,0.917254453234,-0.320122909917,0.917254453234,-0.320122909917,0.0718722511988,0.174269446931
5500000000.0,0.0740209254485,0.176915901549,0.914697597592,-0.325483428214,0.914697597592,-0.325483428214,0.0740209254485,0.176915901549
5600000000.0,0.0761990718319,0.179532871896,0.912103519191,-0.330815077455,0.912103519191,-0.330815077455,0.0761990718319,0.179532871896
5700000000.0,0.0784062204728,0.182120025396,0.909472671986,-0.336117530591,0.909472671986,-0.336117530591,0.0784062204728,0.182120025396
5800000000.0,0.0806418977952,0.184677038523,0.906805513378,-0.341390469504,0.906805513378,-0.341390469504,0.0806418977952,0.184677038523
5900000000.0,0.082905626733,0.187203596822,0.904102504002,-0.346633585026,0.904102504002,-0.346633585026,0.082905626733,0.187203596822
6000000000.0,0.0851969269394,0.189699394931,0.901364107516,-0.351846576965,0.901364107516,-0.351846576965,0.0851969269394,0.189699394931
6100000000.0,0.0875153149942,0.19216413659,0.898590790398,-0.357029154112,0.898590790398,-0.357029154112,0.0875153149942,0.19216413659
6200000000.0,0.0898603046092,0.194597534654,0.895783021736,-0.362181034253,0.895783021736,-0.362181034253,0.0898603046092,0.194597534654
6300000000.0,0.0922314068334,0.196999311094,0.892941273023,-0.367301944172,0.892941273023,-0.367301944172,0.0922314068334,0.196999311094
6400000000.0,0.0946281302546,0.199369196997,0.890066017959,-0.372391619652,0.890066017959,-0.372391619652,0.0946281302546,0.199369196997
6500000000.0,0.0970499812011,0.201706932559,0.887157732243,-0.377449805464,0.887157732243,-0.377449805464,0.0970499812011,0.201706932559
6600000000.0,0.09949646394,0.204012267073,0.884216893377,-0.38247625536,0.884216893377,-0.38247625536,0.09949646394,0.204012267073
6700000000.0,0.101967080874,0.206284958915,0.881243980469,-0.387470732054,0.881243980469,-0.387470732054,0.101967080874,0.206284958915
6800000000.0,0.104461332738,0.208524775522,0.878239474039,-0.392433007206,0.878239474039,-0.392433007206,0.104461332738,0.208524775522
6900000000.0,0.106978718788,0.210731493371,0.87520385582,-0.397362861392,0.87520385582,-0.397362861392,0.106978718788,0.210731493371
7000000000.0,0.109518736995,0.212904897943,0.872137608573,-0.402260084077,0.872137608573,-0.402260084077,0.109518736995,0.212904897943
7100000000.0,0.112080884233,0.215044783698,0.869041215898,-0.407124473582,0.869041215898,-0.407124473582,0.112080884233,0.215044783698
7200000000.0,0.114664656461,0.217150954029,0.865915162041,-0.411955837044,0.865915162041,-0.411955837044,0.114664656461,0.217150954029
7300000000.0,0.117269548912,0.219223221226,0.86275993172,-0.416753990375,0.86275993172,-0.416753990375,0.117269548912,0.219223221226
7400000000.0,0.119895056267,0.22126140643,0.859576009937,-0.421518758218,0.859576009937,-0.421518758218,0.119895056267,0.22126140643
7500000000.0,0.122540672837,0.22326533958,0.856363881801,-0.426249973893,0.856363881801,-0.426249973893,0.122540672837,0.22326533958
7600000000.0,0.125205892738,0.22523485936,0.853124032355,-0.430947479344,0.853124032355,-0.430947479344,0.125205892738,0.22523485936
7700000000.0,0.127890210062,0.227169813148,0.849856946396,-0.435611125083,0.849856946396,-0.435611125083,0.127890210062,0.227169813148
7800000000.0,0.130593119047,0.229070056947,0.846563108315,-0.440240770128,0.846563108315,-0.440240770128,0.130593119047,0.229070056947
7900000000.0,0.133314114244,0.230935455326,0.843243001921,-0.444836281941,0.843243001921,-0.444836281941,0.133314114244,0.230935455326
8000000000.0,0.136052690678,0.232765881353,0.83989711028,-0.449397536353,0.83989711028,-0.449397536353,0.136052690678,0.232765881353
8100000000.0,0.138808344012,0.23456121652,0.836525915554,-0.453924417499,0.836525915554,-0.453924417499,0.138808344012,0.23456121652
8200000000.0,0.141580570703,0.236321350674,0.833129898842,-0.458416817743,0.833129898842,-0.458416817743,0.141580570703,0.236321350674
8300000000.0,0.144368868156,0.238046181939,0.829709540027,-0.462874637597,0.829709540027,-0.462874637597,0.144368868156,0.238046181939
8400000000.0,0.147172734874,0.239735616634,0.826265317621,-0.467297785644,0.826265317621,-0.467297785644,0.147172734874,0.239735616634
8500000000.0,0.149991670607,0.241389569195,0.822797708618,-0.471686178454,0.822797708618,-0.471686178454,0.149991670607,0.241389569195
8600000000.0,0.152825176498,0.243007962086,0.819307188348,-0.476039740496,0.819307188348,-0.476039740496,0.152825176498,0.243007962086
8700000000.0,0.155672755221,0.244590725713,0.815794230336,-0.480358404052,0.815794230336,-0.480358404052,0.155672755221,0.244590725713
8800000000.0,0.15853391112,0.246137798336,0.812259306161,-0.484642109127,0.812259306161,-0.484642109127,0.15853391112,0.246137798336
8900000000.0,0.161408150347,0.247649125971,0.808702885325,-0.488890803353,0.808702885325,-0.488890803353,0.161408150347,0.247649125971
9000000000.0,0.164294980986,0.249124662304,0.805125435115,-0.493104441892,0.805125435115,-0.493104441892,0.164294980986,0.249124662304
9100000000.0,0.167193913188,0.250564368587,0.801527420477,-0.497282987346,0.801527420477,-0.497282987346,0.167193913188,0.250564368587
9200000000.0,0.17010445929,0.251968213543,0.797909303893,-0.501426409648,0.797909303893,-0.501426409648,0.17010445929,0.251968213543
9300000000.0,0.17302613394,0.253336173265,0.794271545254,-0.505534685968,0.794271545254,-0.505534685968,0.17302613394,0.253336173265
9400000000.0,0.175958454212,0.254668231115,0.790614601748,-0.509607800605,0.790614601748,-0.509607800605,0.175958454212,0.254668231115
9500000000.0,0.178900939718,0.255964377616,0.786938927738,-0.513645744883,0.786938927738,-0.513645744883,0.178900939718,0.255964377616
9600000000.0,0.181853112725,0.257224610352,0.783244974655,-0.517648517047,0.783244974655,-0.517648517047,0.181853112725,0.257224610352
9700000000.0,0.184814498255,0.258448933859,0.779533190889,-0.521616122151,0.779533190889,-0.521616122151,0.184814498255,0.258448933859
9800000000.0,0.187784624194,0.259637359517,0.775804021683,-0.525548571953,0.775804021683,-0.525548571953,0.187784624194,0.259637359517
9900000000.0,0.190763021387,0.260789905439,0.772057909032,-0.529445884799,0.772057909032,-0.529445884799,0.190763021387,0.260789905439
10000000000.0,0.193749223739,0.261906596362,0.768295291588,-0.533308085517,0.768295291588,-0.533308085517,0.193749223739,0.261906596362
