freq (GHz),S11_real,S11_imag,S21_real,S21_imag,S12_real,S12_imag,S22_real,S22_imag
100000000.0,-0.0010539405385,-0.0329119063432,0.998798898924,-0.0332065870657,0.998798898924,-0.0332065870657,-0.0010539405385,-0.0329119063432
200000000.0,-0.00435395881255,-0.0656028989153,0.995497746211,-0.0661922835574,0.995497746211,-0.0661922835574,-0.00435395881255,-0.0656028989153
300000000.0,-0.00978446093314,-0.0978615028459,0.99006627555,-0.0987456284302,0.99006627555,-0.0987456284302,-0.00978446093314,-0.0978615028459
400000000.0,-0.0172754826904,-0.129485595011,0.98257432454,-0.130664509767,0.98257432454,-0.130664509767,-0.0172754826904,-0.129485595011
500000000.0,-0.0267325837089,-0.160286421552,0.973116284993,-0.161760183631,0.973116284993,-0.161760183631,-0.0267325837089,-0.160286421552
600000000.0,-0.0380397261209,-0.190092059515,0.961808170088,-0.191860736155,0.961808170088,-0.191860736155,-0.0380397261209,-0.190092059515
700000000.0,-0.0510626978872,-0.218750185235,0.948784177314,-0.220813852143,0.948784177314,-0.220813852143,-0.0510626978872,-0.218750185235
800000000.0,-0.0656528844109,-0.246130072743,0.934192911847,-0.248488813619,0.934192911847,-0.248488813619,-0.0656528844109,-0.246130072743
900000000.0,-0.0816511998387,-0.272123796993,0.918193453032,-0.274777703133,0.918193453032,-0.274777703133,-0.0816511998387,-0.272123796993
1000000000.0,-0.0988920003884,-0.296646663497,0.900951439928,-0.299595833466,0.900951439928,-0.299595833466,-0.0988920003884,-0.296646663497
1100000000.0,-0.11720682276,-0.31963692569,0.882635332274,-0.322881465034,0.882635332274,-0.322881465034,-0.11720682276,-0.31963692569
1200000000.0,-0.136427819126,-0.341054881575,0.863412975128,-0.344594902567,0.863412975128,-0.344594902567,-0.136427819126,-0.341054881575
1300000000.0,-0.156390793071,-0.360881461111,0.843448562697,-0.364717082532,0.843448562697,-0.364717082532,-0.156390793071,-0.360881461111
1400000000.0,-0.176937774781,-0.379116425349,0.822900062991,-0.383247772283,0.822900062991,-0.383247772283,-0.176937774781,-0.379116425349
1500000000.0,-0.197919105991,-0.395776298646,0.801917132773,-0.400203502295,0.801917132773,-0.400203502295,-0.197919105991,-0.395776298646
1600000000.0,-0.219195033466,-0.410892148064,0.780639524008,-0.415615345582,0.780639524008,-0.415615345582,-0.219195033466,-0.410892148064
1700000000.0,-0.240636832858,-0.424507311436,0.759195959953,-0.429526645772,0.759195959953,-0.429526645772,-0.240636832858,-0.424507311436
1800000000.0,-0.262127502008,-0.436675159465,0.737703441811,-0.441990779217,0.737703441811,-0.441990779217,-0.262127502008,-0.436675159465
1900000000.0,-0.283562074318,-0.447456959654,0.716266935342,-0.453069018937,0.716266935342,-0.453069018937,-0.283562074318,-0.447456959654
2000000000.0,-0.304847609046,-0.456919892304,0.694979380534,-0.462828550622,0.694979380534,-0.462828550622,-0.304847609046,-0.456919892304
2100000000.0,-0.325902917336,-0.465135252438,0.673921965562,-0.471340674568,0.673921965562,-0.471340674568,-0.325902917336,-0.465135252438
2200000000.0,-0.346658081202,-0.472176857112,0.653164607793,-0.478679212988,0.653164607793,-0.478679212988,-0.346658081202,-0.472176857112
2300000000.0,-0.367053818638,-0.478119665477,0.632766588658,-0.484919130089,0.632766588658,-0.484919130089,-0.367053818638,-0.478119665477
2400000000.0,-0.3870407424,-0.48303860944,0.61277729487,-0.490135362733,0.61277729487,-0.490135362733,-0.3870407424,-0.48303860944
2500000000.0,-0.406578553447,-0.487007625542,0.593237024972,-0.494401852319,0.593237024972,-0.494401852319,-0.406578553447,-0.487007625542
2600000000.0,-0.425635203259,-0.490098873714,0.574177827011,-0.497790763551,0.574177827011,-0.497790763551,-0.425635203259,-0.490098873714
2700000000.0,-0.444186052665,-0.492382125411,0.555624339712,-0.500371872567,0.555624339712,-0.500371872567,-0.444186052665,-0.492382125411
2800000000.0,-0.462213048628,-0.493924301997,0.537594615682,-0.502212105336,0.537594615682,-0.502212105336,-0.462213048628,-0.493924301997
2900000000.0,-0.479703935025,-0.494789143846,0.520100910635,-0.503375206757,0.520100910635,-0.503375206757,-0.479703935025,-0.494789143846
3000000000.0,-0.496651508689,-0.495036991072,0.503150427338,-0.503921521397,0.503150427338,-0.503921521397,-0.496651508689,-0.495036991072
3100000000.0,-0.513052928078,-0.494724657861,0.486746006948,-0.503907867823,0.486746006948,-0.503907867823,-0.513052928078,-0.494724657861
3200000000.0,-0.528909078666,-0.493905383854,0.470886763612,-0.50338748999,0.470886763612,-0.50338748999,-0.528909078666,-0.493905383854
3300000000.0,-0.544223996672,-0.492628847717,0.455568660745,-0.502410070812,0.455568660745,-0.502410070812,-0.544223996672,-0.492628847717
3400000000.0,-0.559004350739,-0.490941229787,0.440785029339,-0.501021794817,0.440785029339,-0.501021794817,-0.559004350739,-0.490941229787
3500000000.0,-0.573258979804,-0.488885312464,0.426527030102,-0.499265448531,0.426527030102,-0.499265448531,-0.573258979804,-0.488885312464
3600000000.0,-0.58699848434,-0.486500608653,0.412784062209,-0.497180548932,0.412784062209,-0.497180548932,-0.58699848434,-0.486500608653
3700000000.0,-0.600234867525,-0.48382351016,0.399544122132,-0.494803491844,0.399544122132,-0.494803491844,-0.600234867525,-0.48382351016
3800000000.0,-0.612981222489,-0.480887449295,0.386794116396,-0.492167713544,0.386794116396,-0.492167713544,-0.612981222489,-0.480887449295
3900000000.0,-0.625251461629,-0.47772306822,0.37452013226,-0.489303860109,0.37452013226,-0.489303860109,-0.625251461629,-0.47772306822
4000000000.0,-0.63706008395,-0.474358391635,0.362707670375,-0.48623996011,0.362707670375,-0.48623996011,-0.63706008395,-0.474358391635
4100000000.0,-0.64842197651,-0.470818999342,0.351341843342,-0.483001597171,0.351341843342,-0.483001597171,-0.64842197651,-0.470818999342
4200000000.0,-0.659352246209,-0.467128196002,0.34040754392,-0.479612079735,0.34040754392,-0.479612079735,-0.659352246209,-0.467128196002
4300000000.0,-0.669866078403,-0.463307176079,0.329889586413,-0.476092606006,0.329889586413,-0.476092606006,-0.669866078403,-0.463307176079
4400000000.0,-0.679978619096,-0.459375182499,0.319772824474,-0.472462422606,0.319772824474,-0.472462422606,-0.679978619096,-0.459375182499
4500000000.0,-0.689704877726,-0.455349657994,0.310042248323,-0.468738975931,0.310042248323,-0.468738975931,-0.689704877726,-0.455349657994
4600000000.0,-0.699059647849,-0.451246388484,0.300683064061,-0.464938055525,0.300683064061,-0.464938055525,-0.699059647849,-0.451246388484
4700000000.0,-0.708057443298,-0.44707963812,0.291680757512,-0.46107392913,0.291680757512,-0.46107392913,-0.708057443298,-0.44707963812
4800000000.0,-0.716712447651,-0.442862275834,0.28302114475,-0.457159469233,0.28302114475,-0.457159469233,-0.716712447651,-0.442862275834
4900000000.0,-0.725038475098,-0.43860589344,0.274690411239,-0.453206271176,0.274690411239,-0.453206271176,-0.725038475098,-0.43860589344
5000000000.0,-0.733048941008,-0.434320915433,0.266675141261,-0.44922476295,0.266675141261,-0.44922476295,-0.733048941008,-0.434320915433
5100000000.0,-0.740756840718,-0.430016700757,0.258962339128,-0.445224306964,0.258962339128,-0.445224306964,-0.740756840718,-0.430016700757
5200000000.0,-0.74817473524,-0.425701636856,0.251539443473,-0.441213294103,0.251539443473,-0.441213294103,-0.74817473524,-0.425701636856
5300000000.0,-0.755314742773,-0.421383226402,0.244394335743,-0.437199230453,0.244394335743,-0.437199230453,-0.755314742773,-0.421383226402
5400000000.0,-0.762188535025,-0.417068167077,0.237515343871,-0.433188817086,0.237515343871,-0.433188817086,-0.762188535025,-0.417068167077
5500000000.0,-0.768807337521,-0.412762424862,0.230891241971,-0.429188023348,0.230891241971,-0.429188023348,-0.768807337521,-0.412762424862
5600000000.0,-0.775181933159,-0.408471301217,0.224511246782,-0.425202154044,0.224511246782,-0.425202154044,-0.775181933159,-0.408471301217
5700000000.0,-0.781322668397,-0.404199494605,0.218365011479,-0.421235910961,0.218365011479,-0.421235910961,-0.781322668397,-0.404199494605
5800000000.0,-0.787239461544,-0.399951156741,0.212442617385,-0.417293449119,0.212442617385,-0.417293449119,-0.787239461544,-0.399951156741
5900000000.0,-0.792941812703,-0.395729943981,0.206734564025,-0.413378428157,0.206734564025,-0.413378428157,-0.792941812703,-0.395729943981
6000000000.0,-0.798438814981,-0.391539064206,0.201231757916,-0.409494059224,0.201231757916,-0.409494059224,-0.798438814981,-0.391539064206
6100000000.0,-0.803739166648,-0.387381319574,0.195925500408,-0.405643147732,0.195925500408,-0.405643147732,-0.803739166648,-0.387381319574
6200000000.0,-0.80885118398,-0.383259145466,0.190807474846,-0.401828132298,0.190807474846,-0.401828132298,-0.80885118398,-0.383259145466
6300000000.0,-0.813782814539,-0.379174645947,0.185869733283,-0.398051120208,0.185869733283,-0.398051120208,-0.813782814539,-0.379174645947
6400000000.0,-0.818541650733,-0.375129626018,0.181104682921,-0.394313919676,0.181104682921,-0.394313919676,-0.818541650733,-0.375129626018
6500000000.0,-0.823134943476,-0.371125620962,0.176505072454,-0.390618069177,0.176505072454,-0.390618069177,-0.823134943476,-0.371125620962
6600000000.0,-0.827569615836,-0.367163922995,0.172063978421,-0.386964864118,0.172063978421,-0.386964864118,-0.827569615836,-0.367163922995
6700000000.0,-0.831852276553,-0.3632456055,0.167774791681,-0.383355381054,0.167774791681,-0.383355381054,-0.831852276553,-0.3632456055
6800000000.0,-0.835989233368,-0.359371545013,0.163631204093,-0.37979049969,0.163631204093,-0.37979049969,-0.835989233368,-0.359371545013
6900000000.0,-0.839986506069,-0.355542441198,0.15962719546,-0.376270922847,0.15962719546,-0.376270922847,-0.839986506069,-0.355542441198
7000000000.0,-0.843849839228,-0.351758834961,0.155757020803,-0.372797194581,0.155757020803,-0.372797194581,-0.843849839228,-0.351758834961
7100000000.0,-0.847584714568,-0.348021124889,0.152015197983,-0.369369716623,0.152015197983,-0.369369716623,-0.847584714568,-0.348021124889
7200000000.0,-0.851196362954,-0.34432958215,0.148396495718,-0.365988763279,0.148396495718,-0.365988763279,-0.851196362954,-0.34432958215
7300000000.0,-0.854689775968,-0.34068436401,0.144895922006,-0.362654494947,0.144895922006,-0.362654494947,-0.854689775968,-0.34068436401
7400000000.0,-0.858069717066,-0.337085526076,0.141508712964,-0.359366970362,0.141508712964,-0.359366970362,-0.858069717066,-0.337085526076
7500000000.0,-0.861340732306,-0.333533033385,0.138230322107,-0.356126157688,0.138230322107,-0.356126157688,-0.861340732306,-0.333533033385
7600000000.0,-0.864507160644,-0.330026770459,0.135056410043,-0.352931944567,0.135056410043,-0.352931944567,-0.864507160644,-0.330026770459
7700000000.0,-0.867573143809,-0.326566550396,0.131982834608,-0.349784147216,0.131982834608,-0.349784147216,-0.867573143809,-0.326566550396
7800000000.0,-0.870542635743,-0.323152123102,0.129005641416,-0.346682518664,0.129005641416,-0.346682518664,-0.870542635743,-0.323152123102
7900000000.0,-0.87341941163,-0.319783182745,0.126121054839,-0.343626756193,0.126121054839,-0.343626756193,-0.87341941163,-0.319783182745
8000000000.0,-0.87620707652,-0.316459374487,0.123325469377,-0.340616508085,0.123325469377,-0.340616508085,-0.87620707652,-0.316459374487
8100000000.0,-0.878909073547,-0.313180300574,0.120615441441,-0.337651379706,0.120615441441,-0.337651379706,-0.878909073547,-0.313180300574
8200000000.0,-0.881528691772,-0.309945525839,0.117987681511,-0.334730939008,0.117987681511,-0.334730939008,-0.881528691772,-0.309945525839
8300000000.0,-0.884069073649,-0.306754582672,0.115439046672,-0.331854721505,0.115439046672,-0.331854721505,-0.884069073649,-0.306754582672
8400000000.0,-0.886533222129,-0.303606975505,0.112966533504,-0.329022234753,0.112966533504,-0.329022234753,-0.886533222129,-0.303606975505
8500000000.0,-0.888924007428,-0.300502184857,0.11056727132,-0.326232962401,0.11056727132,-0.326232962401,-0.888924007428,-0.300502184857
8600000000.0,-0.891244173452,-0.297439670983,0.108238515737,-0.323486367837,0.108238515737,-0.323486367837,-0.891244173452,-0.297439670983
8700000000.0,-0.893496343914,-0.29441887716,0.105977642561,-0.320781897476,0.105977642561,-0.320781897476,-0.893496343914,-0.29441887716
8800000000.0,-0.895683028141,-0.291439232646,0.10378214198,-0.318118983717,0.10378214198,-0.318118983717,-0.895683028141,-0.291439232646
8900000000.0,-0.897806626596,-0.288500155335,0.101649613042,-0.315497047604,0.101649613042,-0.315497047604,-0.897806626596,-0.288500155335
9000000000.0,-0.899869436115,-0.285601054153,0.0995777584127,-0.312915501216,0.0995777584127,-0.312915501216,-0.899869436115,-0.285601054153
9100000000.0,-0.901873654892,-0.282741331198,0.0975643794021,-0.310373749815,0.0975643794021,-0.310373749815,-0.901873654892,-0.282741331198
9200000000.0,-0.903821387197,-0.279920383663,0.0956073712327,-0.307871193761,0.0956073712327,-0.307871193761,-0.903821387197,-0.279920383663
9300000000.0,-0.905714647873,-0.277137605558,0.0937047185545,-0.305407230244,0.0937047185545,-0.305407230244,-0.905714647873,-0.277137605558
9400000000.0,-0.907555366587,-0.274392389246,0.091854491185,-0.30298125481,0.091854491185,-0.30298125481,-0.907555366587,-0.274392389246
9500000000.0,-0.90934539188,-0.271684126816,0.0900548400648,-0.300592662745,0.0900548400648,-0.300592662745,-0.90934539188,-0.271684126816
9600000000.0,-0.911086495,-0.269012211304,0.0883039934198,-0.298240850286,0.0883039934198,-0.298240850286,-0.911086495,-0.269012211304
9700000000.0,-0.912780373553,-0.266376037776,0.0866002531171,-0.295925215716,0.0866002531171,-0.295925215716,-0.912780373553,-0.266376037776
9800000000.0,-0.914428654953,-0.263775004293,0.0849419912066,-0.293645160321,0.0849419912066,-0.293645160321,-0.914428654953,-0.263775004293
9900000000.0,-0.916032899713,-0.26120851276,0.0833276466374,-0.291400089241,0.0833276466374,-0.291400089241,-0.916032899713,-0.26120851276
10000000000.0,-0.917594604554,-0.258675969674,0.0817557221411,-0.28918941222,0.0817557221411,-0.28918941222,-0.917594604554,-0.258675969674
