freq (GHz),S11_real,S11_imag,S21_real,S21_imag,S12_real,S12_imag,S22_real,S22_imag
100000000.0,0.216076717657,0.00205584297027,0.783920510323,-0.00320232172806,0.783920510323,-0.00320232172806,0.216076717657,0.00205584297027
200000000.0,0.217206314351,0.00409647799923,0.782787704834,-0.00638943729273,0.782787704834,-0.00638943729273,0.217206314351,0.00409647799923
300000000.0,0.218045016259,0.00612804313043,0.781944355932,-0.00956748843515,0.781944355932,-0.00956748843515,0.218045016259,0.00612804313043
400000000.0,0.218742238088,0.00815259155629,0.781241047921,-0.0127385318719,0.781241047921,-0.0127385318719,0.218742238088,0.00815259155629
500000000.0,0.219355728207,0.010171224285,0.780620031638,-0.015903672048,0.780620031638,-0.015903672048,0.219355728207,0.010171224285
600000000.0,0.21991503438,0.0121846199467,0.780051758634,-0.0190635909744,0.780051758634,-0.0190635909744,0.21991503438,0.0121846199467
700000000.0,0.220437664508,0.0141932252366,0.779518720391,-0.0222187386855,0.779518720391,-0.0222187386855,0.220437664508,0.0141932252366
800000000.0,0.220934993786,0.0161973433022,0.779009541146,-0.0253694216366,0.779009541146,-0.0253694216366,0.220934993786,0.0161973433022
900000000.0,0.221414898684,0.0181971812428,0.778516343885,-0.0285158502093,0.778516343885,-0.0285158502093,0.221414898684,0.0181971812428
1000000000.0,0.221883093939,0.0201928782481,0.778033413351,-0.0316581668545,0.778033413351,-0.0316581668545,0.221883093939,0.0201928782481
1100000000.0,0.222343876787,0.022184523478,0.777556451801,-0.034796463975,0.777556451801,-0.034796463975,0.222343876787,0.022184523478
1200000000.0,0.222800571023,0.0241721680436,0.777082134934,-0.0379307959097,0.777082134934,-0.0379307959097,0.222800571023,0.0241721680436
1300000000.0,0.22325580676,0.02615583338,0.77660783214,-0.0410611873077,0.77660783214,-0.0410611873077,0.22325580676,0.02615583338
1400000000.0,0.223711704541,0.028135517298,0.776131422371,-0.0441876391817,0.776131422371,-0.0441876391817,0.223711704541,0.028135517298
1500000000.0,0.224170000967,0.0301111984834,0.775651168521,-0.0473101334087,0.775651168521,-0.0473101334087,0.224170000967,0.0301111984834
1600000000.0,0.224632137041,0.0320828399215,0.775165629073,-0.0504286361553,0.775165629073,-0.0504286361553,0.224632137041,0.0320828399215
1700000000.0,0.22509932191,0.034050391558,0.774673594358,-0.0535431005398,0.774673594358,-0.0535431005398,0.22509932191,0.034050391558
1800000000.0,0.225572579894,0.0360137924019,0.774174039525,-0.0566534687357,0.774174039525,-0.0566534687357,0.225572579894,0.0360137924019
1900000000.0,0.226052785854,0.0379729722148,0.773666089168,-0.0597596736615,0.773666089168,-0.0597596736615,0.226052785854,0.0379729722148
2000000000.0,0.226540692254,0.0399278528853,0.773148990266,-0.062861640356,0.773148990266,-0.062861640356,0.226540692254,0.0399278528853
2100000000.0,0.227036950178,0.0418783495614,0.772622091168,-0.0659592871107,0.772622091168,-0.0659592871107,0.227036950178,0.0418783495614
2200000000.0,0.227542125865,0.0438243715943,0.772084825047,-0.0690525264146,0.772084825047,-0.0690525264146,0.227542125865,0.0438243715943
2300000000.0,0.228056713895,0.0457658233321,0.771536696723,-0.072141265748,0.771536696723,-0.072141265748,0.228056713895,0.0457658233321
2400000000.0,0.228581147805,0.0477026047942,0.770977272044,-0.0752254082573,0.770977272044,-0.0752254082573,0.228581147805,0.0477026047942
2500000000.0,0.22911580872,0.0496346122485,0.77040616925,-0.0783048533322,0.77040616925,-0.0783048533322,0.22911580872,0.0496346122485
2600000000.0,0.229661032451,0.0515617387095,0.769823051881,-0.0813794971045,0.769823051881,-0.0813794971045,0.229661032451,0.0515617387095
2700000000.0,0.230217115355,0.0534838743713,0.76922762291,-0.0844492328814,0.76922762291,-0.0844492328814,0.230217115355,0.0534838743713
2800000000.0,0.23078431924,0.0554009069861,0.768619619844,-0.0875139515237,0.768619619844,-0.0875139515237,0.23078431924,0.0554009069861
2900000000.0,0.231362875471,0.0573127221978,0.767998810612,-0.0905735417803,0.767998810612,-0.0905735417803,0.231362875471,0.0573127221978
3000000000.0,0.231952988453,0.0592192038374,0.767364990084,-0.0936278905829,0.767364990084,-0.0936278905829,0.231952988453,0.0592192038374
3100000000.0,0.232554838588,0.0611202341851,0.766717977116,-0.0966768833093,0.766717977116,-0.0966768833093,0.232554838588,0.0611202341851
3200000000.0,0.233168584808,0.0630156942059,0.766057612012,-0.0997204040185,0.766057612012,-0.0997204040185,0.233168584808,0.0630156942059
3300000000.0,0.233794366753,0.064905463761,0.765383754348,-0.102758335662,0.765383754348,-0.102758335662,0.233794366753,0.064905463761
3400000000.0,0.234432306658,0.0667894217983,0.764696281085,-0.105790560276,0.764696281085,-0.105790560276,0.234432306658,0.0667894217983
3500000000.0,0.235082510988,0.0686674465253,0.763995084936,-0.108816959151,0.763995084936,-0.108816959151,0.235082510988,0.0686674465253
3600000000.0,0.235745071867,0.0705394155674,0.763280072932,-0.111837412995,0.763280072932,-0.111837412995,0.235745071867,0.0705394155674
3700000000.0,0.23642006833,0.0724052061109,0.762551165171,-0.114851802073,0.762551165171,-0.114851802073,0.23642006833,0.0724052061109
3800000000.0,0.237107567427,0.0742646950358,0.761808293718,-0.11786000634,0.761808293718,-0.11786000634,0.237107567427,0.0742646950358
3900000000.0,0.237807625195,0.0761177590366,0.761051401628,-0.120861905565,0.761051401628,-0.120861905565,0.237807625195,0.0761177590366
4000000000.0,0.238520287521,0.077964274735,0.760280442085,-0.123857379439,0.760280442085,-0.123857379439,0.238520287521,0.077964274735
4100000000.0,0.239245590913,0.0798041187832,0.759495377628,-0.126846307684,0.759495377628,-0.126846307684,0.239245590913,0.0798041187832
4200000000.0,0.239983563188,0.0816371679603,0.75869617947,-0.129828570143,0.75869617947,-0.129828570143,0.239983563188,0.0816371679603
4300000000.0,0.24073422408,0.0834632992618,0.757882826882,-0.132804046877,0.757882826882,-0.132804046877,0.24073422408,0.0834632992618
4400000000.0,0.241497585801,0.0852823899835,0.757055306637,-0.135772618243,0.757055306637,-0.135772618243,0.241497585801,0.0852823899835
4500000000.0,0.242273653533,0.0870943177991,0.756213612511,-0.138734164972,0.756213612511,-0.138734164972,0.242273653533,0.0870943177991
4600000000.0,0.243062425885,0.0888989608338,0.755357744837,-0.141688568247,0.755357744837,-0.141688568247,0.243062425885,0.0888989608338
4700000000.0,0.243863895296,0.0906961977326,0.754487710092,-0.144635709768,0.754487710092,-0.144635709768,0.243863895296,0.0906961977326
4800000000.0,0.244678048411,0.092485907725,0.753603520525,-0.147575471817,0.753603520525,-0.147575471817,0.244678048411,0.092485907725
4900000000.0,0.24550486642,0.0942679706857,0.752705193819,-0.150507737319,0.752705193819,-0.150507737319,0.24550486642,0.0942679706857
5000000000.0,0.246344325364,0.0960422671919,0.75179275278,-0.153432389901,0.75179275278,-0.153432389901,0.246344325364,0.0960422671919
5100000000.0,0.247196396427,0.0978086785775,0.750866225053,-0.156349313943,0.750866225053,-0.156349313943,0.247196396427,0.0978086785775
5200000000.0,0.24806104619,0.0995670869842,0.749925642859,-0.159258394631,0.749925642859,-0.159258394631,0.24806104619,0.0995670869842
5300000000.0,0.248938236878,0.10131737541,0.748971042754,-0.162159518007,0.748971042754,-0.162159518007,0.248938236878,0.10131737541
5400000000.0,0.249827926578,0.103059427753,0.748002465407,-0.165052571011,0.748002465407,-0.165052571011,0.249827926578,0.103059427753
5500000000.0,0.25073006945,0.104793128861,0.747019955394,-0.167937441529,0.747019955394,-0.167937441529,0.25073006945,0.104793128861
5600000000.0,0.251644615914,0.106518364564,0.746023561005,-0.17081401843,0.746023561005,-0.17081401843,0.251644615914,0.106518364564
5700000000.0,0.252571512832,0.108235021721,0.745013334065,-0.173682191607,0.745013334065,-0.173682191607,0.252571512832,0.108235021721
5800000000.0,0.253510703673,0.109942988253,0.743989329772,-0.176541852016,0.743989329772,-0.176541852016,0.253510703673,0.109942988253
5900000000.0,0.254462128667,0.111642153178,0.742951606534,-0.179392891709,0.742951606534,-0.179392891709,0.254462128667,0.111642153178
6000000000.0,0.255425724952,0.113332406648,0.741900225832,-0.182235203869,0.741900225832,-0.182235203869,0.255425724952,0.113332406648
6100000000.0,0.256401426712,0.115013639978,0.740835252075,-0.185068682838,0.740835252075,-0.185068682838,0.256401426712,0.115013639978
6200000000.0,0.257389165303,0.116685745678,0.739756752477,-0.187893224156,0.739756752477,-0.187893224156,0.257389165303,0.116685745678
6300000000.0,0.258388869377,0.11834861748,0.738664796934,-0.190708724579,0.738664796934,-0.190708724579,0.258388869377,0.11834861748
6400000000.0,0.259400464992,0.120002150368,0.737559457907,-0.193515082117,0.737559457907,-0.193515082117,0.259400464992,0.120002150368
6500000000.0,0.260423875727,0.1216462406,0.736440810319,-0.196312196051,0.736440810319,-0.196312196051,0.260423875727,0.1216462406
6600000000.0,0.26145902278,0.123280785739,0.735308931444,-0.199099966965,0.735308931444,-0.199099966965,0.26145902278,0.123280785739
6700000000.0,0.262505825067,0.124905684671,0.734163900818,-0.201878296764,0.734163900818,-0.201878296764,0.262505825067,0.124905684671
6800000000.0,0.263564199316,0.126520837628,0.733005800139,-0.204647088699,0.733005800139,-0.204647088699,0.263564199316,0.126520837628
6900000000.0,0.264634060155,0.128126146212,0.731834713182,-0.207406247389,0.731834713182,-0.207406247389,0.264634060155,0.128126146212
7000000000.0,0.265715320195,0.129721513412,0.730650725713,-0.210155678838,0.730650725713,-0.210155678838,0.265715320195,0.129721513412
7100000000.0,0.266807890115,0.131306843627,0.729453925408,-0.212895290459,0.729453925408,-0.212895290459,0.266807890115,0.131306843627
7200000000.0,0.267911678735,0.132882042678,0.728244401775,-0.215624991084,0.728244401775,-0.215624991084,0.267911678735,0.132882042678
7300000000.0,0.269026593094,0.134447017829,0.727022246081,-0.21834469099,0.727022246081,-0.21834469099,0.269026593094,0.134447017829
7400000000.0,0.270152538522,0.136001677803,0.725787551276,-0.221054301907,0.725787551276,-0.221054301907,0.270152538522,0.136001677803
7500000000.0,0.271289418705,0.137545932795,0.724540411931,-0.223753737039,0.724540411931,-0.223753737039,0.271289418705,0.137545932795
7600000000.0,0.272437135755,0.139079694487,0.723280924164,-0.226442911075,0.723280924164,-0.226442911075,0.272437135755,0.139079694487
7700000000.0,0.273595590272,0.140602876062,0.722009185582,-0.229121740201,0.722009185582,-0.229121740201,0.273595590272,0.140602876062
7800000000.0,0.274764681409,0.142115392214,0.720725295216,-0.231790142115,0.720725295216,-0.231790142115,0.274764681409,0.142115392214
7900000000.0,0.275944306927,0.143617159163,0.71942935346,-0.23444803604,0.71942935346,-0.23444803604,0.275944306927,0.143617159163
8000000000.0,0.277134363257,0.145108094662,0.718121462015,-0.237095342727,0.718121462015,-0.237095342727,0.277134363257,0.145108094662
8100000000.0,0.278334745556,0.146588118008,0.716801723834,-0.239731984474,0.716801723834,-0.239731984474,0.278334745556,0.146588118008
8200000000.0,0.279545347758,0.148057150052,0.715470243062,-0.24235788513,0.715470243062,-0.24235788513,0.279545347758,0.148057150052
8300000000.0,0.280766062633,0.149515113207,0.714127124989,-0.244972970102,0.714127124989,-0.244972970102,0.280766062633,0.149515113207
8400000000.0,0.281996781831,0.150961931455,0.712772475997,-0.247577166368,0.712772475997,-0.247577166368,0.281996781831,0.150961931455
8500000000.0,0.283237395939,0.152397530353,0.711406403505,-0.250170402478,0.711406403505,-0.250170402478,0.283237395939,0.152397530353
8600000000.0,0.284487794525,0.153821837042,0.710029015926,-0.252752608563,0.710029015926,-0.252752608563,0.284487794525,0.153821837042
8700000000.0,0.285747866189,0.155234780249,0.708640422619,-0.255323716342,0.708640422619,-0.255323716342,0.285747866189,0.155234780249
8800000000.0,0.287017498608,0.156636290293,0.707240733839,-0.257883659122,0.707240733839,-0.257883659122,0.287017498608,0.156636290293
8900000000.0,0.288296578578,0.158026299091,0.705830060692,-0.260432371805,0.705830060692,-0.260432371805,0.288296578578,0.158026299091
9000000000.0,0.289584992065,0.159404740156,0.704408515095,-0.262969790894,0.704408515095,-0.262969790894,0.289584992065,0.159404740156
9100000000.0,0.290882624241,0.160771548609,0.70297620973,-0.26549585449,0.70297620973,-0.26549585449,0.290882624241,0.160771548609
9200000000.0,0.292189359531,0.162126661169,0.701533258001,-0.268010502298,0.701533258001,-0.268010502298,0.292189359531,0.162126661169
9300000000.0,0.293505081653,0.163470016167,0.700079773994,-0.270513675627,0.700079773994,-0.270513675627,0.293505081653,0.163470016167
9400000000.0,0.294829673657,0.164801553537,0.698615872435,-0.273005317392,0.698615872435,-0.273005317392,0.294829673657,0.164801553537
9500000000.0,0.296163017966,0.166121214822,0.697141668655,-0.275485372115,0.697141668655,-0.275485372115,0.296163017966,0.166121214822
9600000000.0,0.297504996414,0.167428943172,0.695657278546,-0.277953785921,0.695657278546,-0.277953785921,0.297504996414,0.167428943172
9700000000.0,0.298855490284,0.168724683345,0.694162818524,-0.280410506543,0.694162818524,-0.280410506543,0.298855490284,0.168724683345
9800000000.0,0.300214380343,0.1700083817,0.692658405496,-0.282855483315,0.692658405496,-0.282855483315,0.300214380343,0.1700083817
9900000000.0,0.301581546882,0.171279986203,0.691144156819,-0.285288667173,0.691144156819,-0.285288667173,0.301581546882,0.171279986203
10000000000.0,0.30295686975,0.17253944642,0.689620190265,-0.287710010654,0.689620190265,-0.287710010654,0.30295686975,0.17253944642
