freq (GHz),S11_real,S11_imag,S21_real,S21_imag,S12_real,S12_imag,S22_real,S22_imag
100000000.0,0.000201405209942,-0.00136667827281,0.999788254356,-0.00209432289875,0.999788254356,-0.00209432289875,0.000201405209942,-0.00136667827281
200000000.0,0.000192535513141,-0.00273335948919,0.999775803729,-0.00418865723621,0.999775803729,-0.00418865723621,0.000192535513141,-0.00273335948919
300000000.0,0.000177580307046,-0.00410003500592,0.999757457882,-0.00628300259286,0.999757457882,-0.00628300259286,0.000177580307046,-0.00410003500592
400000000.0,0.000156717506769,-0.00546669172446,0.999733037933,-0.008377351649,0.999733037933,-0.008377351649,0.000156717506769,-0.00546669172446
500000000.0,0.000130015156599,-0.00683331413233,0.999702474827,-0.010471693734,0.999702474827,-0.010471693734,0.000130015156599,-0.00683331413233
600000000.0,9.75076516887e-05,-0.00819988509577,0.999665733175,-0.012566016001,0.999665733175,-0.012566016001,9.75076516889e-05,-0.00819988509577
700000000.0,5.92151025791e-05,-0.00956638627525,0.999622791928,-0.0146603040161,0.999622791928,-0.0146603040161,5.92151025789e-05,-0.00956638627525
800000000.0,1.51504021111e-05,-0.0109327983787,0.99957363734,-0.016754542109,0.99957363734,-0.016754542109,1.51504021111e-05,-0.0109327983787
900000000.0,-3.46776261529e-05,-0.0122991013303,0.999518259847,-0.0188487136024,0.999518259847,-0.0188487136024,-3.46776261529e-05,-0.0122991013303
1000000000.0,-9.02626298978e-05,-0.0136652743902,0.999456652486,-0.0209428009738,0.999456652486,-0.0209428009738,-9.02626298978e-05,-0.0136652743902
1100000000.0,-0.000151599837701,-0.0150312962441,0.999388810025,-0.0230367859746,0.999388810025,-0.0230367859746,-0.000151599837701,-0.0150312962441
1200000000.0,-0.000218685526662,-0.0163971450723,0.999314728446,-0.0251306497208,0.999314728446,-0.0251306497208,-0.000218685526662,-0.0163971450723
1300000000.0,-0.000291516685859,-0.0177627986042,0.99923440462,-0.0272243727657,0.99923440462,-0.0272243727657,-0.00029151668586,-0.0177627986042
1400000000.0,-0.000370090793783,-0.0191282341631,0.999147836101,-0.0293179351573,0.999147836101,-0.0293179351573,-0.000370090793784,-0.0191282341631
1500000000.0,-0.000454405665469,-0.0204934287027,0.99905502098,-0.0314113164864,0.99905502098,-0.0314113164864,-0.000454405665469,-0.0204934287027
1600000000.0,-0.000544459344095,-0.0218583588388,0.998955957792,-0.0335044959267,0.998955957792,-0.0335044959267,-0.000544459344094,-0.0218583588388
1700000000.0,-0.000640250021941,-0.0232230008756,0.99885064544,-0.0355974522693,0.99885064544,-0.0355974522693,-0.000640250021941,-0.0232230008756
1800000000.0,-0.000741775981347,-0.0245873308288,0.99873908315,-0.0376901639519,0.99873908315,-0.0376901639519,-0.000741775981347,-0.0245873308288
1900000000.0,-0.000849035549649,-0.025951324446,0.998621270432,-0.0397826090844,0.998621270432,-0.0397826090844,-0.000849035549649,-0.025951324446
2000000000.0,-0.00096202706411,-0.0273149572248,0.998497207052,-0.0418747654716,0.998497207052,-0.0418747654716,-0.00096202706411,-0.0273149572248
2100000000.0,-0.00108074884415,-0.0286782044279,0.998366893014,-0.0439666106334,0.998366893014,-0.0439666106334,-0.00108074884415,-0.0286782044279
2200000000.0,-0.00120519916902,-0.0300410410988,0.998230328541,-0.0460581218227,0.998230328541,-0.0460581218227,-0.00120519916902,-0.0300410410988
2300000000.0,-0.00133537625955,-0.0314034420737,0.998087514063,-0.0481492760416,0.998087514063,-0.0481492760416,-0.00133537625955,-0.0314034420737
2400000000.0,-0.0014712782631,-0.0327653819942,0.997938450212,-0.0502400500561,0.997938450212,-0.0502400500561,-0.0014712782631,-0.0327653819942
2500000000.0,-0.00161290324092,-0.0341268353176,0.997783137811,-0.0523304204097,0.997783137811,-0.0523304204097,-0.00161290324092,-0.0341268353176
2600000000.0,-0.00176024915749,-0.0354877763276,0.99762157787,-0.0544203634357,0.99762157787,-0.0544203634357,-0.00176024915749,-0.0354877763276
2700000000.0,-0.00191331387135,-0.0368481791434,0.997453771581,-0.0565098552686,0.997453771581,-0.0565098552686,-0.00191331387135,-0.0368481791434
2800000000.0,-0.00207209512724,-0.0382080177282,0.997279720318,-0.0585988718547,0.997279720318,-0.0585988718547,-0.00207209512724,-0.0382080177282
2900000000.0,-0.00223659054925,-0.0395672658979,0.99709942563,-0.060687388962,0.99709942563,-0.060687388962,-0.00223659054925,-0.0395672658979
3000000000.0,-0.00240679763474,-0.0409258973283,0.996912889242,-0.0627753821894,0.996912889242,-0.0627753821894,-0.00240679763474,-0.0409258973283
3100000000.0,-0.00258271374907,-0.0422838855627,0.996720113054,-0.0648628269756,0.996720113054,-0.0648628269756,-0.00258271374907,-0.0422838855627
3200000000.0,-0.00276433612081,-0.0436412040185,0.996521099139,-0.0669496986068,0.996521099139,-0.0669496986068,-0.00276433612081,-0.0436412040185
3300000000.0,-0.00295166183754,-0.0449978259941,0.996315849744,-0.069035972225,0.996315849744,-0.069035972225,-0.00295166183754,-0.0449978259941
3400000000.0,-0.003144687842,-0.0463537246746,0.996104367286,-0.0711216228348,0.996104367286,-0.0711216228348,-0.003144687842,-0.0463537246746
3500000000.0,-0.00334341092866,-0.0477088731382,0.995886654358,-0.0732066253108,0.995886654358,-0.0732066253108,-0.00334341092866,-0.0477088731382
3600000000.0,-0.00354782774056,-0.0490632443617,0.995662713724,-0.075290954404,0.995662713724,-0.075290954404,-0.00354782774056,-0.0490632443617
3700000000.0,-0.00375793476648,-0.0504168112259,0.995432548319,-0.0773745847483,0.995432548319,-0.0773745847483,-0.00375793476648,-0.0504168112259
3800000000.0,-0.00397372833829,-0.051769546521,0.995196161253,-0.0794574908665,0.995196161253,-0.0794574908665,-0.00397372833829,-0.051769546521
3900000000.0,-0.00419520462857,-0.0531214229514,0.99495355581,-0.0815396471762,0.99495355581,-0.0815396471762,-0.00419520462857,-0.0531214229514
4000000000.0,-0.0044223596484,-0.054472413141,0.994704735446,-0.0836210279952,0.994704735446,-0.0836210279952,-0.0044223596484,-0.054472413141
4100000000.0,-0.00465518924531,-0.0558224896375,0.994449703792,-0.0857016075472,0.994449703792,-0.0857016075472,-0.00465518924531,-0.0558224896375
4200000000.0,-0.00489368910143,-0.0571716249173,0.994188464654,-0.0877813599671,0.994188464654,-0.0877813599671,-0.00489368910143,-0.0571716249173
4300000000.0,-0.00513785473172,-0.0585197913896,0.993921022013,-0.0898602593057,0.993921022013,-0.0898602593057,-0.00513785473172,-0.0585197913896
4400000000.0,-0.00538768148235,-0.0598669614013,0.993647380025,-0.0919382795348,0.993647380025,-0.0919382795348,-0.00538768148235,-0.0598669614013
4500000000.0,-0.00564316452926,-0.0612131072404,0.993367543021,-0.094015394552,0.993367543021,-0.094015394552,-0.00564316452926,-0.0612131072404
4600000000.0,-0.00590429887672,-0.0625582011409,0.993081515513,-0.0960915781852,0.993081515513,-0.0960915781852,-0.00590429887672,-0.0625582011409
4700000000.0,-0.00617107935607,-0.0639022152861,0.992789302185,-0.0981668041973,0.992789302185,-0.0981668041973,-0.00617107935607,-0.0639022152861
4800000000.0,-0.00644350062454,-0.0652451218131,0.992490907901,-0.10024104629,0.992490907901,-0.10024104629,-0.00644350062454,-0.0652451218131
4900000000.0,-0.00672155716412,-0.0665868928162,0.992186337704,-0.102314278109,0.992186337704,-0.102314278109,-0.00672155716412,-0.0665868928162
5000000000.0,-0.00700524328058,-0.0679275003508,0.991875596813,-0.104386473247,0.991875596813,-0.104386473247,-0.00700524328058,-0.0679275003508
5100000000.0,-0.00729455310246,-0.0692669164369,0.991558690627,-0.106457605249,0.991558690627,-0.106457605249,-0.00729455310246,-0.0692669164369
5200000000.0,-0.00758948058027,-0.070605113063,0.991235624726,-0.108527647614,0.991235624726,-0.108527647614,-0.00758948058027,-0.070605113063
5300000000.0,-0.00789001948566,-0.0719420621891,0.990906404866,-0.110596573804,0.990906404866,-0.110596573804,-0.00789001948566,-0.0719420621891
5400000000.0,-0.00819616341067,-0.0732777357509,0.990571036987,-0.112664357241,0.990571036987,-0.112664357241,-0.00819616341067,-0.0732777357509
5500000000.0,-0.00850790576705,-0.0746121056622,0.990229527206,-0.114730971314,0.990229527206,-0.114730971314,-0.00850790576705,-0.0746121056622
5600000000.0,-0.00882523978569,-0.0759451438191,0.989881881822,-0.116796389385,0.989881881822,-0.116796389385,-0.00882523978569,-0.0759451438191
5700000000.0,-0.00914815851602,-0.0772768221028,0.989528107315,-0.118860584788,0.989528107315,-0.118860584788,-0.00914815851602,-0.0772768221028
5800000000.0,-0.0094766548255,-0.0786071123828,0.989168210346,-0.120923530836,0.989168210346,-0.120923530836,-0.0094766548255,-0.0786071123828
5900000000.0,-0.00981072139921,-0.0799359865205,0.988802197758,-0.122985200822,0.988802197758,-0.122985200822,-0.00981072139921,-0.0799359865205
6000000000.0,-0.0101503507394,-0.0812634163717,0.988430076573,-0.125045568026,0.988430076573,-0.125045568026,-0.0101503507394,-0.0812634163717
6100000000.0,-0.0104955351652,-0.08258937379,0.988051853996,-0.127104605712,0.988051853996,-0.127104605712,-0.0104955351652,-0.08258937379
6200000000.0,-0.0108462668123,-0.0839138306299,0.987667537416,-0.129162287138,0.987667537416,-0.129162287138,-0.0108462668123,-0.0839138306299
6300000000.0,-0.0112025376325,-0.0852367587496,0.9872771344,-0.131218585556,0.9872771344,-0.131218585556,-0.0112025376325,-0.0852367587496
6400000000.0,-0.0115643393939,-0.0865581300139,0.986880652699,-0.133273474214,0.986880652699,-0.133273474214,-0.0115643393939,-0.0865581300139
6500000000.0,-0.0119316636803,-0.0878779162972,0.986478100247,-0.135326926363,0.986478100247,-0.135326926363,-0.0119316636803,-0.0878779162972
6600000000.0,-0.0123045018913,-0.0891960894864,0.986069485156,-0.137378915255,0.986069485156,-0.137378915255,-0.0123045018913,-0.0891960894864
6700000000.0,-0.0126828452424,-0.0905126214838,0.985654815724,-0.13942941415,0.985654815724,-0.13942941415,-0.0126828452424,-0.0905126214838
6800000000.0,-0.0130666847643,-0.0918274842094,0.985234100428,-0.141478396319,0.985234100428,-0.141478396319,-0.0130666847643,-0.0918274842094
6900000000.0,-0.0134560113036,-0.0931406496041,0.984807347928,-0.143525835043,0.984807347928,-0.143525835043,-0.0134560113036,-0.0931406496041
7000000000.0,-0.0138508155225,-0.0944520896324,0.984374567066,-0.14557170362,0.984374567066,-0.14557170362,-0.0138508155225,-0.0944520896324
7100000000.0,-0.0142510878988,-0.0957617762849,0.983935766863,-0.147615975366,0.983935766863,-0.147615975366,-0.0142510878988,-0.0957617762849
7200000000.0,-0.0146568187262,-0.097069681581,0.983490956525,-0.149658623619,0.983490956525,-0.149658623619,-0.0146568187262,-0.097069681581
7300000000.0,-0.0150679981142,-0.0983757775714,0.983040145436,-0.15169962174,0.983040145436,-0.15169962174,-0.0150679981142,-0.0983757775714
7400000000.0,-0.0154846159885,-0.099680036341,0.982583343161,-0.153738943117,0.982583343161,-0.153738943117,-0.0154846159885,-0.099680036341
7500000000.0,-0.015906662091,-0.100982430011,0.982120559447,-0.155776561167,0.982120559447,-0.155776561167,-0.015906662091,-0.100982430011
7600000000.0,-0.0163341259802,-0.102282930742,0.98165180422,-0.15781244934,0.98165180422,-0.15781244934,-0.0163341259802,-0.102282930742
7700000000.0,-0.0167669970312,-0.103581510736,0.981177087586,-0.159846581121,0.981177087586,-0.159846581121,-0.0167669970312,-0.103581510736
7800000000.0,-0.0172052644366,-0.104878142239,0.980696419832,-0.16187893003,0.980696419832,-0.16187893003,-0.0172052644366,-0.104878142239
7900000000.0,-0.017648917206,-0.106172797543,0.980209811422,-0.163909469629,0.980209811422,-0.163909469629,-0.017648917206,-0.106172797543
8000000000.0,-0.0180979441669,-0.10746544899,0.979717273,-0.165938173522,0.979717273,-0.165938173522,-0.0180979441669,-0.10746544899
8100000000.0,-0.018552333965,-0.108756068973,0.979218815388,-0.167965015357,0.979218815388,-0.167965015357,-0.018552333965,-0.108756068973
8200000000.0,-0.0190120750646,-0.110044629936,0.978714449586,-0.169989968832,0.978714449586,-0.169989968832,-0.0190120750646,-0.110044629936
8300000000.0,-0.0194771557489,-0.111331104383,0.978204186771,-0.172013007691,0.978204186771,-0.172013007691,-0.0194771557489,-0.111331104383
8400000000.0,-0.0199475641207,-0.112615464874,0.977688038297,-0.174034105734,0.977688038297,-0.174034105734,-0.0199475641207,-0.112615464874
8500000000.0,-0.0204232881028,-0.113897684029,0.977166015695,-0.176053236814,0.977166015695,-0.176053236814,-0.0204232881028,-0.113897684029
8600000000.0,-0.0209043154384,-0.115177734532,0.976638130671,-0.178070374839,0.976638130671,-0.178070374839,-0.0209043154384,-0.115177734532
8700000000.0,-0.0213906336919,-0.116455589131,0.976104395106,-0.180085493781,0.976104395106,-0.180085493781,-0.0213906336919,-0.116455589131
8800000000.0,-0.0218822302494,-0.117731220641,0.975564821056,-0.182098567669,0.975564821056,-0.182098567669,-0.0218822302494,-0.117731220641
8900000000.0,-0.0223790923191,-0.119004601949,0.975019420752,-0.1841095706,0.975019420752,-0.1841095706,-0.0223790923191,-0.119004601949
9000000000.0,-0.0228812069321,-0.120275706009,0.974468206596,-0.186118476733,0.974468206596,-0.186118476733,-0.0228812069321,-0.120275706009
9100000000.0,-0.0233885609434,-0.121544505852,0.973911191164,-0.188125260299,0.973911191164,-0.188125260299,-0.0233885609434,-0.121544505852
9200000000.0,-0.0239011410317,-0.122810974584,0.973348387203,-0.190129895598,0.973348387203,-0.190129895598,-0.0239011410317,-0.122810974584
9300000000.0,-0.0244189337011,-0.124075085387,0.972779807634,-0.192132357002,0.972779807634,-0.192132357002,-0.0244189337011,-0.124075085387
9400000000.0,-0.024941925281,-0.125336811526,0.972205465545,-0.194132618959,0.972205465545,-0.194132618959,-0.024941925281,-0.125336811526
9500000000.0,-0.0254701019276,-0.126596126344,0.971625374194,-0.196130655995,0.971625374194,-0.196130655995,-0.0254701019276,-0.126596126344
9600000000.0,-0.026003449624,-0.12785300327,0.971039547011,-0.198126442713,0.971039547011,-0.198126442713,-0.026003449624,-0.12785300327
9700000000.0,-0.0265419541814,-0.12910741582,0.97044799759,-0.200119953798,0.97044799759,-0.200119953798,-0.0265419541814,-0.12910741582
9800000000.0,-0.0270856012398,-0.130359337596,0.969850739695,-0.202111164018,0.969850739695,-0.202111164018,-0.0270856012398,-0.130359337596
9900000000.0,-0.0276343762688,-0.131608742289,0.969247787255,-0.204100048226,0.969247787255,-0.204100048226,-0.0276343762688,-0.131608742289
10000000000.0,-0.0281882645687,-0.132855603683,0.968639154366,-0.206086581364,0.968639154366,-0.206086581364,-0.0281882645687,-0.132855603683
