freq (GHz),S11_real,S11_imag,S21_real,S21_imag,S12_real,S12_imag,S22_real,S22_imag
100000000.0,6.50172247396e-06,-0.00517745202335,0.999927651691,-0.00526437015788,0.999927651691,-0.00526437015788,6.50172247374e-06,-0.00517745202335
200000000.0,-8.01549037379e-05,-0.0103539277164,0.999840446929,-0.0105277656652,0.999840446929,-0.0105277656652,-8.01549037382e-05,-0.0103539277164
300000000.0,-0.000221353360323,-0.0155285673138,0.999698828961,-0.0157893277269,0.999698828961,-0.0157893277269,-0.000221353360323,-0.0155285673138
400000000.0,-0.000417011858988,-0.0207005140507,0.999502811707,-0.0210482003246,0.999502811707,-0.0210482003246,-0.000417011858988,-0.0207005140507
500000000.0,-0.000667051655415,-0.0258689136356,0.999252447899,-0.026303529807,0.999252447899,-0.026303529807,-0.000667051655415,-0.0258689136356
600000000.0,-0.000971382606913,-0.0310329143718,0.998947814471,-0.0315544650511,0.998947814471,-0.0315544650511,-0.000971382606913,-0.0310329143718
700000000.0,-0.00132989958008,-0.0361916674425,0.998589008792,-0.0368001577648,0.998589008792,-0.0368001577648,-0.00132989958008,-0.0361916674425
800000000.0,-0.00174248120508,-0.0413443272655,0.998176147223,-0.0420397628535,0.998176147223,-0.0420397628535,-0.00174248120508,-0.0413443272655
900000000.0,-0.00220898938916,-0.0464900518799,0.997709364415,-0.047272438814,0.997709364415,-0.047272438814,-0.00220898938916,-0.0464900518799
1000000000.0,-0.00272926913572,-0.0516280033492,0.997188812886,-0.0524973481424,0.997188812886,-0.0524973481424,-0.00272926913572,-0.0516280033492
1100000000.0,-0.00330314851023,-0.0567573481733,0.996614662716,-0.0577136577498,0.996614662716,-0.0577136577498,-0.00330314851023,-0.0567573481733
1200000000.0,-0.00393043868677,-0.0618772577007,0.995987101311,-0.062920539378,0.995987101311,-0.062920539378,-0.00393043868677,-0.0618772577007
1300000000.0,-0.00461093404373,-0.0669869085462,0.995306333171,-0.0681171700181,0.995306333171,-0.0681171700181,-0.00461093404373,-0.0669869085462
1400000000.0,-0.00534441229391,-0.0720854830014,0.994572579688,-0.0733027323239,0.994572579688,-0.0733027323239,-0.00534441229391,-0.0720854830014
1500000000.0,-0.00613063464003,-0.0771721694464,0.993786078926,-0.0784764150244,0.993786078926,-0.0784764150244,-0.00613063464003,-0.0771721694464
1600000000.0,-0.00696934595074,-0.082246162753,0.992947085414,-0.0836374133287,0.992947085414,-0.0836374133287,-0.00696934595074,-0.082246162753
1700000000.0,-0.00786027495428,-0.0873066646864,0.992055869917,-0.088784929328,0.992055869917,-0.088784929328,-0.00786027495428,-0.0873066646864
1800000000.0,-0.00880313444733,-0.0923528842962,0.991112719213,-0.0939181723882,0.991112719213,-0.0939181723882,-0.00880313444733,-0.0923528842962
1900000000.0,-0.0097976215183,-0.0973840383049,0.99011793585,-0.0990363595386,0.99011793585,-0.0990363595386,-0.0097976215183,-0.0973840383049
2000000000.0,-0.0108434177835,-0.102399351487,0.989071837897,-0.104138715851,0.989071837897,-0.104138715851,-0.0108434177835,-0.102399351487
2100000000.0,-0.0119401896354,-0.107398057037,0.987974758693,-0.109224474812,0.987974758693,-0.109224474812,-0.0119401896354,-0.107398057037
2200000000.0,-0.0130875885022,-0.112379396936,0.986827046572,-0.114292878683,0.986827046572,-0.114292878683,-0.0130875885022,-0.112379396936
2300000000.0,-0.0142852511192,-0.117342622301,0.985629064592,-0.119343178856,0.985629064592,-0.119343178856,-0.0142852511192,-0.117342622301
2400000000.0,-0.0155327998094,-0.122286993731,0.984381190248,-0.1243746362,0.984381190248,-0.1243746362,-0.0155327998094,-0.122286993731
2500000000.0,-0.0168298427746,-0.127211781641,0.983083815175,-0.129386521391,0.983083815175,-0.129386521391,-0.0168298427746,-0.127211781641
2600000000.0,-0.0181759743956,-0.132116266585,0.981737344851,-0.134378115238,0.981737344851,-0.134378115238,-0.0181759743956,-0.132116266585
2700000000.0,-0.0195707755416,-0.136999739572,0.980342198275,-0.139348709,0.980342198275,-0.139348709,-0.0195707755416,-0.136999739572
2800000000.0,-0.0210138138875,-0.141861502364,0.978898807659,-0.144297604684,0.978898807659,-0.144297604684,-0.0210138138875,-0.141861502364
2900000000.0,-0.0225046442393,-0.146700867774,0.977407618093,-0.149224115341,0.977407618093,-0.149224115341,-0.0225046442393,-0.146700867774
3000000000.0,-0.0240428088673,-0.151517159942,0.975869087211,-0.154127565345,0.975869087211,-0.154127565345,-0.0240428088673,-0.151517159942
3100000000.0,-0.0256278378458,-0.156309714607,0.974283684855,-0.159007290664,0.974283684855,-0.159007290664,-0.0256278378458,-0.156309714607
3200000000.0,-0.0272592493995,-0.161077879364,0.972651892723,-0.163862639116,0.972651892723,-0.163862639116,-0.0272592493995,-0.161077879364
3300000000.0,-0.028936550256,-0.165821013908,0.970974204016,-0.168692970617,0.970974204016,-0.168692970617,-0.028936550256,-0.165821013908
3400000000.0,-0.0306592360037,-0.170538490271,0.969251123082,-0.173497657412,0.969251123082,-0.173497657412,-0.0306592360037,-0.170538490271
3500000000.0,-0.0324267914552,-0.175229693042,0.967483165048,-0.178276084302,0.967483165048,-0.178276084302,-0.0324267914552,-0.175229693042
3600000000.0,-0.034238691015,-0.179894019576,0.965670855457,-0.183027648849,0.965670855457,-0.183027648849,-0.034238691015,-0.179894019576
3700000000.0,-0.0360943990513,-0.184530880194,0.96381472989,-0.187751761575,0.96381472989,-0.187751761575,-0.0360943990513,-0.184530880194
3800000000.0,-0.0379933702718,-0.189139698365,0.961915333593,-0.192447846149,0.961915333593,-0.192447846149,-0.0379933702718,-0.189139698365
3900000000.0,-0.0399350501025,-0.193719910882,0.959973221098,-0.197115339557,0.959973221098,-0.197115339557,-0.0399350501025,-0.193719910882
4000000000.0,-0.0419188750697,-0.198270968018,0.957988955839,-0.201753692267,0.957988955839,-0.201753692267,-0.0419188750697,-0.198270968018
4100000000.0,-0.0439442731836,-0.202792333679,0.955963109768,-0.206362368369,0.955963109768,-0.206362368369,-0.0439442731836,-0.202792333679
4200000000.0,-0.0460106643244,-0.207283485536,0.953896262973,-0.21094084572,0.953896262973,-0.21094084572,-0.0460106643244,-0.207283485536
4300000000.0,-0.0481174606299,-0.211743915149,0.951789003282,-0.215488616061,0.951789003282,-0.215488616061,-0.0481174606299,-0.211743915149
4400000000.0,-0.0502640668834,-0.216173128078,0.949641925884,-0.220005185129,0.949641925884,-0.220005185129,-0.0502640668834,-0.216173128078
4500000000.0,-0.0524498809026,-0.220570643982,0.947455632932,-0.224490072758,0.947455632932,-0.224490072758,-0.0524498809026,-0.220570643982
4600000000.0,-0.0546742939289,-0.224935996705,0.94523073316,-0.228942812963,0.94523073316,-0.228942812963,-0.0546742939289,-0.224935996705
4700000000.0,-0.056936691016,-0.229268734349,0.94296784149,-0.233362954015,0.94296784149,-0.233362954015,-0.056936691016,-0.229268734349
4800000000.0,-0.0592364514175,-0.23356841934,0.940667578644,-0.237750058504,0.940667578644,-0.237750058504,-0.0592364514175,-0.23356841934
4900000000.0,-0.0615729489743,-0.237834628474,0.938330570761,-0.242103703391,0.938330570761,-0.242103703391,-0.0615729489743,-0.237834628474
5000000000.0,-0.0639455524996,-0.242066952959,0.935957449006,-0.246423480043,0.935957449006,-0.246423480043,-0.0639455524996,-0.242066952959
5100000000.0,-0.0663536261624,-0.246264998442,0.933548849193,-0.250708994263,0.933548849193,-0.250708994263,-0.0663536261624,-0.246264998442
5200000000.0,-0.0687965298689,-0.250428385024,0.931105411396,-0.254959866306,0.931105411396,-0.254959866306,-0.0687965298689,-0.250428385024
5300000000.0,-0.0712736196408,-0.254556747265,0.928627779576,-0.259175730885,0.928627779576,-0.259175730885,-0.0712736196408,-0.254556747265
5400000000.0,-0.073784247991,-0.258649734178,0.926116601205,-0.263356237161,0.926116601205,-0.263356237161,-0.073784247991,-0.258649734178
5500000000.0,-0.0763277642958,-0.262707009212,0.923572526891,-0.267501048731,0.923572526891,-0.267501048731,-0.0763277642958,-0.262707009212
5600000000.0,-0.0789035151635,-0.266728250224,0.92099621001,-0.271609843595,0.92099621001,-0.271609843595,-0.0789035151635,-0.266728250224
5700000000.0,-0.081510844799,-0.270713149442,0.918388306343,-0.275682314124,0.918388306343,-0.275682314124,-0.081510844799,-0.270713149442
5800000000.0,-0.0841490953642,-0.274661413418,0.915749473717,-0.279718167008,0.915749473717,-0.279718167008,-0.0841490953642,-0.274661413418
5900000000.0,-0.0868176073335,-0.278572762967,0.913080371642,-0.2837171232,0.913080371642,-0.2837171232,-0.0868176073335,-0.278572762967
6000000000.0,-0.0895157198451,-0.282446933102,0.910381660969,-0.287678917847,0.910381660969,-0.287678917847,-0.0895157198451,-0.282446933102
6100000000.0,-0.0922427710465,-0.286283672957,0.907654003538,-0.291603300216,0.907654003538,-0.291603300216,-0.0922427710465,-0.286283672957
6200000000.0,-0.0949980984352,-0.2900827457,0.904898061842,-0.295490033607,0.904898061842,-0.295490033607,-0.0949980984352,-0.2900827457
6300000000.0,-0.097781039193,-0.293843928442,0.902114498686,-0.299338895257,0.902114498686,-0.299338895257,-0.097781039193,-0.293843928442
6400000000.0,-0.100590930516,-0.297567012128,0.899303976866,-0.303149676239,0.899303976866,-0.303149676239,-0.100590930516,-0.297567012128
6500000000.0,-0.103427109936,-0.301251801432,0.896467158838,-0.306922181349,0.896467158838,-0.306922181349,-0.103427109936,-0.301251801432
6600000000.0,-0.106288915638,-0.304898114633,0.893604706408,-0.31065622899,0.893604706408,-0.31065622899,-0.106288915638,-0.304898114633
6700000000.0,-0.109175686772,-0.308505783491,0.890717280417,-0.314351651042,0.890717280417,-0.314351651042,-0.109175686772,-0.308505783491
6800000000.0,-0.112086763755,-0.312074653112,0.88780554044,-0.318008292728,0.88780554044,-0.318008292728,-0.112086763755,-0.312074653112
6900000000.0,-0.115021488565,-0.315604581805,0.884870144487,-0.321626012474,0.884870144487,-0.321626012474,-0.115021488565,-0.315604581805
7000000000.0,-0.117979205039,-0.319095440937,0.881911748717,-0.325204681763,0.881911748717,-0.325204681763,-0.117979205039,-0.319095440937
7100000000.0,-0.120959259146,-0.322547114778,0.878931007148,-0.328744184975,0.878931007148,-0.328744184975,-0.120959259146,-0.322547114778
7200000000.0,-0.123960999273,-0.325959500338,0.875928571389,-0.332244419233,0.875928571389,-0.332244419233,-0.123960999273,-0.325959500338
7300000000.0,-0.126983776484,-0.329332507203,0.872905090367,-0.335705294231,0.872905090367,-0.335705294231,-0.126983776484,-0.329332507203
7400000000.0,-0.130026944787,-0.332666057363,0.869861210065,-0.339126732067,0.869861210065,-0.339126732067,-0.130026944787,-0.332666057363
7500000000.0,-0.133089861387,-0.335960085034,0.866797573271,-0.342508667061,0.866797573271,-0.342508667061,-0.133089861387,-0.335960085034
7600000000.0,-0.13617188693,-0.339214536476,0.863714819333,-0.345851045578,0.863714819333,-0.345851045578,-0.13617188693,-0.339214536476
7700000000.0,-0.139272385744,-0.342429369806,0.860613583915,-0.349153825837,0.860613583915,-0.349153825837,-0.139272385744,-0.342429369806
7800000000.0,-0.142390726068,-0.34560455481,0.857494498772,-0.352416977725,0.857494498772,-0.352416977725,-0.142390726068,-0.34560455481
7900000000.0,-0.145526280278,-0.348740072741,0.85435819152,-0.355640482595,0.85435819152,-0.355640482595,-0.145526280278,-0.348740072741
8000000000.0,-0.148678425098,-0.35183591613,0.851205285429,-0.358824333073,0.851205285429,-0.358824333073,-0.148678425098,-0.35183591613
8100000000.0,-0.151846541813,-0.354892088575,0.848036399208,-0.361968532854,0.848036399208,-0.361968532854,-0.151846541813,-0.354892088575
8200000000.0,-0.155030016467,-0.357908604539,0.844852146806,-0.365073096497,0.844852146806,-0.365073096497,-0.155030016467,-0.357908604539
8300000000.0,-0.158228240053,-0.360885489143,0.841653137223,-0.368138049214,0.841653137223,-0.368138049214,-0.158228240053,-0.360885489143
8400000000.0,-0.161440608703,-0.363822777953,0.838439974321,-0.371163426664,0.838439974321,-0.371163426664,-0.161440608703,-0.363822777953
8500000000.0,-0.164666523863,-0.366720516767,0.83521325665,-0.374149274733,0.83521325665,-0.374149274733,-0.164666523863,-0.366720516767
8600000000.0,-0.167905392458,-0.369578761401,0.831973577276,-0.377095649327,0.831973577276,-0.377095649327,-0.167905392458,-0.369578761401
8700000000.0,-0.171156627062,-0.372397577468,0.82872152362,-0.380002616146,0.82872152362,-0.380002616146,-0.171156627062,-0.372397577468
8800000000.0,-0.174419646047,-0.375177040165,0.825457677305,-0.382870250473,0.825457677305,-0.382870250473,-0.174419646047,-0.375177040165
8900000000.0,-0.177693873732,-0.377917234047,0.822182614006,-0.385698636946,0.822182614006,-0.385698636946,-0.177693873732,-0.377917234047
9000000000.0,-0.180978740519,-0.380618252809,0.818896903314,-0.388487869346,0.818896903314,-0.388487869346,-0.180978740519,-0.380618252809
9100000000.0,-0.184273683032,-0.383280199064,0.815601108601,-0.391238050365,0.815601108601,-0.391238050365,-0.184273683032,-0.383280199064
9200000000.0,-0.187578144236,-0.385903184118,0.812295786895,-0.393949291391,0.812295786895,-0.393949291391,-0.187578144236,-0.385903184118
9300000000.0,-0.190891573556,-0.388487327749,0.808981488766,-0.396621712282,0.808981488766,-0.396621712282,-0.190891573556,-0.388487327749
9400000000.0,-0.194213426991,-0.391032757984,0.805658758209,-0.399255441141,0.805658758209,-0.399255441141,-0.194213426991,-0.391032757984
9500000000.0,-0.197543167212,-0.393539610872,0.802328132548,-0.401850614096,0.802328132548,-0.401850614096,-0.197543167212,-0.393539610872
9600000000.0,-0.200880263664,-0.396008030265,0.798990142332,-0.404407375074,0.798990142332,-0.404407375074,-0.200880263664,-0.396008030265
9700000000.0,-0.204224192655,-0.398438167595,0.795645311248,-0.40692587558,0.795645311248,-0.40692587558,-0.204224192655,-0.398438167595
9800000000.0,-0.207574437435,-0.400830181649,0.792294156041,-0.409406274475,0.792294156041,-0.409406274475,-0.207574437435,-0.400830181649
9900000000.0,-0.21093048828,-0.403184238349,0.788937186429,-0.411848737754,0.788937186429,-0.411848737754,-0.21093048828,-0.403184238349
10000000000.0,-0.214291842556,-0.405500510535,0.78557490504,-0.414253438328,0.78557490504,-0.414253438328,-0.214291842556,-0.405500510535
