freq (GHz),S11_real,S11_imag,S21_real,S21_imag,S12_real,S12_imag,S22_real,S22_imag
100000000.0,0.00214042989728,-0.000443762679945,0.997846204926,-0.00367158536432,0.997846204926,-0.00367158536432,0.00214042989728,-0.000443762679945
200000000.0,0.00214796759593,-0.000887587476108,0.997809353626,-0.00734303033427,0.997809353626,-0.00734303033427,0.00214796759593,-0.000887587476108
300000000.0,0.00214849955583,-0.00133141858944,0.997762559752,-0.0110143294273,0.997762559752,-0.0110143294273,0.00214849955583,-0.00133141858944
400000000.0,0.00214388061199,-0.00177522315483,0.997703968837,-0.0146854506058,0.997703968837,-0.0146854506058,0.00214388061199,-0.00177522315483
500000000.0,0.00213482447202,-0.00221897330263,0.997632867805,-0.0183563550225,0.997632867805,-0.0183563550225,0.00213482447202,-0.00221897330263
600000000.0,0.00212169496889,-0.00266264324324,0.997548893736,-0.0220270005689,0.997548893736,-0.0220270005689,0.00212169496889,-0.00266264324324
700000000.0,0.00210470708444,-0.00310620825384,0.997451832849,-0.0256973432131,0.997451832849,-0.0256973432131,0.00210470708444,-0.00310620825384
800000000.0,0.00208400027478,-0.00354964422407,0.997341547187,-0.0293673376474,0.997341547187,-0.0293673376474,0.00208400027478,-0.00354964422407
900000000.0,0.00205967110067,-0.00399292742075,0.997217941997,-0.0330369376526,0.997217941997,-0.0330369376526,0.00205967110067,-0.00399292742075
1000000000.0,0.00203178975831,-0.00443603435392,0.997080949198,-0.0367060963221,0.997080949198,-0.0367060963221,0.00203178975831,-0.00443603435392
1100000000.0,0.0020004092638,-0.00487894169542,0.996930518212,-0.0403747662108,0.996930518212,-0.0403747662108,0.0020004092638,-0.00487894169542
1200000000.0,0.00196557092325,-0.00532162622688,0.996766610491,-0.0440428994387,0.996766610491,-0.0440428994387,0.00196557092325,-0.00532162622688
1300000000.0,0.00192730777256,-0.00576406480539,0.996589196083,-0.0477104477665,0.996589196083,-0.0477104477665,0.00192730777256,-0.00576406480539
1400000000.0,0.0018856468374,-0.00620623434014,0.99639825138,-0.0513773626523,0.99639825138,-0.0513773626523,0.0018856468374,-0.00620623434014
1500000000.0,0.00184061067254,-0.00664811177627,0.996193757577,-0.0550435952953,0.996193757577,-0.0550435952953,0.00184061067254,-0.00664811177627
1600000000.0,0.00179221844253,-0.00708967408351,0.995975699598,-0.0587090966706,0.995975699598,-0.0587090966706,0.00179221844253,-0.00708967408351
1700000000.0,0.00174048670025,-0.0075308982483,0.995744065317,-0.0623738175575,0.995744065317,-0.0623738175575,0.00174048670025,-0.0075308982483
1800000000.0,0.00168542996032,-0.00797176126815,0.995498844993,-0.0660377085621,0.995498844993,-0.0660377085621,0.00168542996032,-0.00797176126815
1900000000.0,0.0016270611297,-0.00841224014776,0.995240030835,-0.0697007201371,0.995240030835,-0.0697007201371,0.0016270611297,-0.00841224014776
2000000000.0,0.00156539183668,-0.00885231189646,0.994967616679,-0.0733628025977,0.994967616679,-0.0733628025977,0.00156539183668,-0.00885231189646
2100000000.0,0.0015004326859,-0.00929195352647,0.994681597736,-0.0770239061355,0.994681597736,-0.0770239061355,0.0015004326859,-0.00929195352647
2200000000.0,0.00143219345892,-0.00973114205198,0.994381970391,-0.0806839808309,0.994381970391,-0.0806839808309,0.00143219345892,-0.00973114205198
2300000000.0,0.00136068327365,-0.0101698544887,0.994068732046,-0.0843429766636,0.994068732046,-0.0843429766636,0.00136068327365,-0.0101698544887
2400000000.0,0.00128591071272,-0.0106080678538,0.993741880995,-0.0880008435215,0.993741880995,-0.0880008435215,0.00128591071272,-0.0106080678538
2500000000.0,0.00120788392764,-0.0110457591664,0.993401416319,-0.0916575312097,0.993401416319,-0.0916575312097,0.00120788392764,-0.0110457591664
2600000000.0,0.00112661072426,-0.0114829054479,0.993047337804,-0.0953129894573,0.993047337804,-0.0953129894573,0.00112661072426,-0.0114829054479
2700000000.0,0.00104209863335,-0.0119194837231,0.992679645871,-0.0989671679245,0.992679645871,-0.0989671679245,0.00104209863335,-0.0119194837231
2800000000.0,0.000954354969471,-0.0123554710206,0.992298341517,-0.102620016209,0.992298341517,-0.102620016209,0.000954354969471,-0.0123554710206
2900000000.0,0.000863386880218,-0.0127908443743,0.99190342627,-0.10627148385,0.99190342627,-0.10627148385,0.000863386880218,-0.0127908443743
3000000000.0,0.000769201387905,-0.0132255808247,0.991494902148,-0.109921520335,0.991494902148,-0.109921520335,0.000769201387906,-0.0132255808247
3100000000.0,0.000671805424903,-0.0136596574195,0.991072771621,-0.113570075106,0.991072771621,-0.113570075106,0.000671805424903,-0.0136596574195
3200000000.0,0.000571205863824,-0.0140930512155,0.990637037586,-0.117217097559,0.990637037586,-0.117217097559,0.000571205863824,-0.0140930512155
3300000000.0,0.000467409543446,-0.0145257392799,0.99018770334,-0.120862537053,0.99018770334,-0.120862537053,0.000467409543446,-0.0145257392799
3400000000.0,0.000360423291053,-0.0149576986913,0.989724772559,-0.124506342911,0.989724772559,-0.124506342911,0.000360423291053,-0.0149576986913
3500000000.0,0.000250253941799,-0.0153889065416,0.989248249281,-0.128148464426,0.989248249281,-0.128148464426,0.000250253941799,-0.0153889065416
3600000000.0,0.000136908355548,-0.0158193399373,0.988758137886,-0.131788850861,0.988758137886,-0.131788850861,0.000136908355548,-0.0158193399373
3700000000.0,2.03934315852e-05,-0.0162489760011,0.988254443086,-0.135427451455,0.988254443086,-0.135427451455,2.03934315852e-05,-0.0162489760011
3800000000.0,-9.92838784981e-05,-0.016677791873,0.987737169911,-0.139064215427,0.987737169911,-0.139064215427,-9.92838784983e-05,-0.016677791873
3900000000.0,-0.000222116559464,-0.0171057647125,0.987206323697,-0.142699091976,0.987206323697,-0.142699091976,-0.000222116559464,-0.0171057647125
4000000000.0,-0.000348097522432,-0.0175328716997,0.986661910079,-0.146332030283,0.986661910079,-0.146332030283,-0.000348097522431,-0.0175328716997
4100000000.0,-0.000477219596033,-0.0179590900368,0.986103934982,-0.14996297952,0.986103934982,-0.14996297952,-0.000477219596033,-0.0179590900368
4200000000.0,-0.000609475518566,-0.0183843969499,0.985532404612,-0.153591888846,0.985532404612,-0.153591888846,-0.000609475518566,-0.0183843969499
4300000000.0,-0.00074485793102,-0.0188087696906,0.984947325453,-0.157218707411,0.984947325453,-0.157218707411,-0.00074485793102,-0.0188087696906
4400000000.0,-0.000883359370856,-0.0192321855371,0.984348704255,-0.160843384361,0.984348704255,-0.160843384361,-0.000883359370856,-0.0192321855371
4500000000.0,-0.00102497226646,-0.0196546217964,0.983736548036,-0.164465868839,0.983736548036,-0.164465868839,-0.00102497226646,-0.0196546217964
4600000000.0,-0.00116968893218,-0.0200760558055,0.983110864072,-0.168086109984,0.983110864072,-0.168086109984,-0.00116968893218,-0.0200760558055
4700000000.0,-0.00131750156386,-0.0204964649329,0.982471659894,-0.17170405694,0.982471659894,-0.17170405694,-0.00131750156386,-0.0204964649329
4800000000.0,-0.00146840223487,-0.0209158265804,0.981818943287,-0.175319658852,0.981818943287,-0.175319658852,-0.00146840223487,-0.0209158265804
4900000000.0,-0.00162238289251,-0.0213341181845,0.981152722283,-0.178932864869,0.981152722283,-0.178932864869,-0.00162238289251,-0.0213341181845
5000000000.0,-0.00177943535478,-0.0217513172183,0.98047300516,-0.182543624151,0.98047300516,-0.182543624151,-0.00177943535478,-0.0217513172183
5100000000.0,-0.00193955130748,-0.0221674011923,0.979779800436,-0.186151885863,0.979779800436,-0.186151885863,-0.00193955130748,-0.0221674011923
5200000000.0,-0.00210272230161,-0.0225823476569,0.979073116873,-0.189757599184,0.979073116873,-0.189757599184,-0.00210272230161,-0.0225823476569
5300000000.0,-0.00226893975098,-0.0229961342034,0.978352963466,-0.193360713307,0.978352963466,-0.193360713307,-0.00226893975098,-0.0229961342034
5400000000.0,-0.00243819493015,-0.0234087384654,0.97761934945,-0.196961177436,0.97761934945,-0.196961177436,-0.00243819493015,-0.0234087384654
5500000000.0,-0.00261047897247,-0.0238201381211,0.976872284289,-0.200558940794,0.976872284289,-0.200558940794,-0.00261047897247,-0.0238201381211
5600000000.0,-0.00278578286836,-0.0242303108939,0.976111777683,-0.204153952625,0.976111777683,-0.204153952625,-0.00278578286836,-0.0242303108939
5700000000.0,-0.00296409746381,-0.0246392345546,0.975337839557,-0.207746162188,0.975337839557,-0.207746162188,-0.00296409746381,-0.0246392345546
5800000000.0,-0.00314541345896,-0.0250468869229,0.974550480069,-0.211335518769,0.974550480069,-0.211335518769,-0.00314541345896,-0.0250468869229
5900000000.0,-0.00332972140688,-0.0254532458684,0.973749709601,-0.214921971674,0.973749709601,-0.214921971674,-0.00332972140688,-0.0254532458684
6000000000.0,-0.00351701171242,-0.0258582893129,0.972935538761,-0.218505470236,0.972935538761,-0.218505470236,-0.00351701171242,-0.0258582893129
6100000000.0,-0.00370727463127,-0.0262619952312,0.972107978383,-0.222085963815,0.972107978383,-0.222085963815,-0.00370727463127,-0.0262619952312
6200000000.0,-0.00390050026906,-0.0266643416531,0.971267039522,-0.225663401799,0.971267039522,-0.225663401799,-0.00390050026906,-0.0266643416531
6300000000.0,-0.00409667858055,-0.0270653066649,0.970412733457,-0.229237733607,0.970412733457,-0.229237733607,-0.00409667858055,-0.0270653066649
6400000000.0,-0.00429579936903,-0.0274648684104,0.969545071686,-0.232808908688,0.969545071686,-0.232808908688,-0.00429579936903,-0.0274648684104
6500000000.0,-0.00449785228562,-0.0278630050932,0.96866406593,-0.236376876527,0.96866406593,-0.236376876527,-0.00449785228562,-0.0278630050932
6600000000.0,-0.00470282682885,-0.0282596949775,0.967769728125,-0.239941586641,0.967769728125,-0.239941586641,-0.00470282682885,-0.0282596949775
6700000000.0,-0.00491071234416,-0.0286549163899,0.96686207043,-0.243502988586,0.96686207043,-0.243502988586,-0.00491071234416,-0.0286549163899
6800000000.0,-0.00512149802356,-0.0290486477209,0.965941105217,-0.247061031952,0.965941105217,-0.247061031952,-0.00512149802356,-0.0290486477209
6900000000.0,-0.00533517290531,-0.0294408674263,0.965006845077,-0.250615666374,0.965006845077,-0.250615666374,-0.00533517290531,-0.0294408674263
7000000000.0,-0.00555172587367,-0.0298315540289,0.964059302818,-0.254166841521,0.964059302818,-0.254166841521,-0.00555172587367,-0.0298315540289
7100000000.0,-0.00577114565875,-0.0302206861195,0.96309849146,-0.25771450711,0.96309849146,-0.25771450711,-0.00577114565875,-0.0302206861195
7200000000.0,-0.00599342083634,-0.0306082423589,0.96212442424,-0.261258612899,0.96212442424,-0.261258612899,-0.00599342083634,-0.0306082423589
7300000000.0,-0.00621853982784,-0.030994201479,0.961137114607,-0.264799108691,0.961137114607,-0.264799108691,-0.00621853982784,-0.030994201479
7400000000.0,-0.00644649090022,-0.0313785422843,0.960136576225,-0.268335944336,0.960136576225,-0.268335944336,-0.00644649090022,-0.0313785422843
7500000000.0,-0.00667726216604,-0.0317612436535,0.959122822968,-0.271869069731,0.959122822968,-0.271869069731,-0.00667726216604,-0.0317612436535
7600000000.0,-0.00691084158349,-0.032142284541,0.958095868923,-0.275398434823,0.958095868923,-0.275398434823,-0.00691084158349,-0.032142284541
7700000000.0,-0.0071472169565,-0.032521643978,0.957055728388,-0.27892398961,0.957055728388,-0.27892398961,-0.0071472169565,-0.032521643978
7800000000.0,-0.00738637593485,-0.0328993010742,0.956002415872,-0.282445684141,0.956002415872,-0.282445684141,-0.00738637593485,-0.0328993010742
7900000000.0,-0.00762830601434,-0.0332752350191,0.954935946094,-0.285963468519,0.954935946094,-0.285963468519,-0.00762830601434,-0.0332752350191
8000000000.0,-0.007872994537,-0.0336494250836,0.953856333981,-0.2894772929,0.953856333981,-0.2894772929,-0.007872994537,-0.0336494250836
8100000000.0,-0.00812042869133,-0.0340218506212,0.952763594669,-0.292987107499,0.952763594669,-0.292987107499,-0.00812042869133,-0.0340218506212
8200000000.0,-0.00837059551254,-0.0343924910695,0.951657743504,-0.296492862585,0.951657743504,-0.296492862585,-0.00837059551254,-0.0343924910695
8300000000.0,-0.00862348188287,-0.0347613259515,0.950538796038,-0.299994508488,0.950538796038,-0.299994508488,-0.00862348188287,-0.0347613259515
8400000000.0,-0.0088790745319,-0.0351283348773,0.94940676803,-0.303491995595,0.94940676803,-0.303491995595,-0.0088790745319,-0.0351283348773
8500000000.0,-0.0091373600369,-0.0354934975451,0.948261675446,-0.306985274357,0.948261675446,-0.306985274357,-0.0091373600369,-0.0354934975451
8600000000.0,-0.00939832482322,-0.0358567937428,0.947103534458,-0.310474295286,0.947103534458,-0.310474295286,-0.00939832482322,-0.0358567937428
8700000000.0,-0.00966195516471,-0.0362182033493,0.945932361444,-0.313959008958,0.945932361444,-0.313959008958,-0.00966195516471,-0.0362182033493
8800000000.0,-0.00992823718408,-0.0365777063359,0.944748172984,-0.317439366012,0.944748172984,-0.317439366012,-0.00992823718408,-0.0365777063359
8900000000.0,-0.0101971568535,-0.0369352827676,0.943550985865,-0.320915317155,0.943550985865,-0.320915317155,-0.0101971568535,-0.0369352827676
9000000000.0,-0.0104686999948,-0.0372909128046,0.942340817077,-0.324386813162,0.942340817077,-0.324386813162,-0.0104686999948,-0.0372909128046
9100000000.0,-0.0107428522803,-0.0376445767035,0.941117683813,-0.327853804874,0.941117683813,-0.327853804874,-0.0107428522803,-0.0376445767035
9200000000.0,-0.0110195992331,-0.0379962548186,0.939881603469,-0.331316243204,0.939881603469,-0.331316243204,-0.0110195992331,-0.0379962548186
9300000000.0,-0.0112989262278,-0.0383459276034,0.938632593642,-0.334774079134,0.938632593642,-0.334774079134,-0.0112989262278,-0.0383459276034
9400000000.0,-0.0115808184908,-0.0386935756118,0.937370672131,-0.338227263719,0.937370672131,-0.338227263719,-0.0115808184908,-0.0386935756118
9500000000.0,-0.0118652611011,-0.0390391794995,0.936095856937,-0.341675748088,0.936095856937,-0.341675748088,-0.0118652611011,-0.0390391794995
9600000000.0,-0.0121522389908,-0.0393827200251,0.934808166258,-0.345119483443,0.934808166258,-0.345119483443,-0.0121522389908,-0.0393827200251
9700000000.0,-0.012441736946,-0.0397241780519,0.933507618496,-0.348558421062,0.933507618496,-0.348558421062,-0.012441736946,-0.0397241780519
9800000000.0,-0.0127337396067,-0.0400635345484,0.93219423225,-0.351992512301,0.93219423225,-0.351992512301,-0.0127337396067,-0.0400635345484
9900000000.0,-0.0130282314684,-0.0404007705904,0.930868026317,-0.355421708592,0.930868026317,-0.355421708592,-0.0130282314684,-0.0404007705904
10000000000.0,-0.0133251968821,-0.0407358673617,0.929529019693,-0.358845961447,0.929529019693,-0.358845961447,-0.0133251968821,-0.0407358673617
