freq (GHz),S11_real,S11_imag,S21_real,S21_imag,S12_real,S12_imag,S22_real,S22_imag
100000000.0,-0.00484189493845,-0.068979762104,0.995120993635,-0.0691144434667,0.995120993635,-0.0691144434667,-0.00484189493845,-0.068979762104
200000000.0,-0.0190061004351,-0.135977841941,0.980956507099,-0.136247244256,0.980956507099,-0.136247244256,-0.0190061004351,-0.135977841941
300000000.0,-0.041689017114,-0.19921918099,0.958273354802,-0.199623364443,0.958273354802,-0.199623364443,-0.041689017114,-0.19921918099
400000000.0,-0.0717042475808,-0.257259964455,0.928257902218,-0.257799004932,0.928257902218,-0.257799004932,-0.0717042475808,-0.257259964455
500000000.0,-0.107610573576,-0.309075411997,0.892351355353,-0.309749398463,0.892351355353,-0.309749398463,-0.107610573576,-0.309075411997
600000000.0,-0.147867298362,-0.354083060718,0.852094404701,-0.354892093395,0.852094404701,-0.354892093395,-0.147867298362,-0.354083060718
700000000.0,-0.190971899974,-0.392110007866,0.808989568535,-0.393054196814,0.808989568535,-0.393054196814,-0.190971899974,-0.392110007866
800000000.0,-0.235562863173,-0.423322235867,0.764398359695,-0.424401699834,0.764398359695,-0.424401699834,-0.235562863173,-0.423322235867
900000000.0,-0.280482080877,-0.448136459002,0.719478883592,-0.449351324435,0.719478883592,-0.449351324435,-0.280482080877,-0.448136459002
1000000000.0,-0.324800325896,-0.467131706463,0.675160366194,-0.468482106654,0.675160366194,-0.468482106654,-0.324800325896,-0.467131706463
1100000000.0,-0.367814382046,-0.480972014046,0.632146022756,-0.482458088373,0.632146022756,-0.482458088373,-0.367814382046,-0.480972014046
1200000000.0,-0.409025795666,-0.490345677808,0.590934306207,-0.491967571057,0.590934306207,-0.491967571057,-0.409025795666,-0.490345677808
1300000000.0,-0.448110119919,-0.495921973508,0.551849662794,-0.49767983526,0.551849662794,-0.49767983526,-0.448110119919,-0.495921973508
1400000000.0,-0.484883317299,-0.498323466653,0.515076129534,-0.500217450731,0.515076129534,-0.500217450731,-0.484883317299,-0.498323466653
1500000000.0,-0.519269636967,-0.498110786797,0.480689456854,-0.500141050763,0.480689456854,-0.500141050763,-0.519269636967,-0.498110786797
1600000000.0,-0.55127331554,-0.495776532838,0.448685407783,-0.497943237531,0.448685407783,-0.497943237531,-0.55127331554,-0.495776532838
1700000000.0,-0.580955034685,-0.491745345514,0.419003300347,-0.49404865463,0.419003300347,-0.49404865463,-0.580955034685,-0.491745345514
1800000000.0,-0.608413174902,-0.486377784542,0.391544753772,-0.488817864255,0.391544753772,-0.488817864255,-0.608413174902,-0.486377784542
1900000000.0,-0.633769416609,-0.479976271593,0.366188087396,-0.4825532902,0.366188087396,-0.4825532902,-0.633769416609,-0.479976271593
2000000000.0,-0.657158028789,-0.472791903162,0.342799032016,-0.475506030764,0.342799032016,-0.475506030764,-0.657158028789,-0.472791903162
2100000000.0,-0.678718144364,-0.465031364157,0.321238454511,-0.46788277237,0.321238454511,-0.46788277237,-0.678718144364,-0.465031364157
2200000000.0,-0.69858837191,-0.456863485282,0.301367746118,-0.459852346968,0.301367746118,-0.459852346968,-0.69858837191,-0.456863485282
2300000000.0,-0.716903184457,-0.448425202922,0.283052433636,-0.451551691949,0.283052433636,-0.451551691949,-0.716903184457,-0.448425202922
2400000000.0,-0.733790627713,-0.439826821442,0.266164471199,-0.443091112464,0.266164471199,-0.443091112464,-0.733790627713,-0.439826821442
2500000000.0,-0.749370986153,-0.431156565049,0.250583574181,-0.434558833308,0.250583574181,-0.434558833308,-0.749370986153,-0.431156565049
2600000000.0,-0.763756128818,-0.422484456431,0.236197873399,-0.426024877578,0.236197873399,-0.426024877578,-0.763756128818,-0.422484456431
2700000000.0,-0.777049325389,-0.413865584968,0.222904099039,-0.417544334899,0.222904099039,-0.417544334899,-0.777049325389,-0.413865584968
2800000000.0,-0.789345377659,-0.405342837419,0.210607449179,-0.409160092135,0.210607449179,-0.409160092135,-0.789345377659,-0.405342837419
2900000000.0,-0.800730953788,-0.396949164843,0.199221255539,-0.400905100317,0.199221255539,-0.400905100317,-0.800730953788,-0.396949164843
3000000000.0,-0.811285044777,-0.38870945523,0.188666527,-0.392804247295,0.188666527,-0.392804247295,-0.811285044777,-0.38870945523
3100000000.0,-0.821079486523,-0.380642074503,0.178871427553,-0.384875898748,0.178871427553,-0.384875898748,-0.821079486523,-0.380642074503
3200000000.0,-0.830179508437,-0.37276013083,0.16977072768,-0.377133162515,0.16977072768,-0.377133162515,-0.830179508437,-0.37276013083
3300000000.0,-0.838644282412,-0.365072509462,0.16130525538,-0.369584923437,0.16130525538,-0.369584923437,-0.838644282412,-0.365072509462
3400000000.0,-0.846527455166,-0.357584718097,0.153421363838,-0.362236688737,0.153421363838,-0.362236688737,-0.846527455166,-0.357584718097
3500000000.0,-0.853877653465,-0.35029957633,0.146070426186,-0.355091277481,0.146070426186,-0.355091277481,-0.853877653465,-0.35029957633
3600000000.0,-0.860738956359,-0.343217777139,0.139208363279,-0.348149382064,0.139208363279,-0.348149382064,-0.860738956359,-0.343217777139
3700000000.0,-0.867151331665,-0.336338343495,0.132795207207,-0.341410024842,0.132795207207,-0.341410024842,-0.867151331665,-0.336338343495
3800000000.0,-0.873151036068,-0.329658999192,0.126794701194,-0.334870928957,0.126794701194,-0.334870928957,-0.873151036068,-0.329658999192
3900000000.0,-0.878770979587,-0.323176469526,0.121173935132,-0.328528819031,0.121173935132,-0.328528819031,-0.878770979587,-0.323176469526
4000000000.0,-0.884041056017,-0.316886724692,0.115903015139,-0.322379664568,0.115903015139,-0.322379664568,-0.884041056017,-0.316886724692
4100000000.0,-0.88898844147,-0.310785176397,0.110954765016,-0.316418876571,0.110954765016,-0.316418876571,-0.88898844147,-0.310785176397
4200000000.0,-0.893637863371,-0.3048668363,0.106304457254,-0.310641465989,0.106304457254,-0.310641465989,-0.893637863371,-0.3048668363
4300000000.0,-0.898011842369,-0.299126443308,0.101929571123,-0.305042171018,0.101929571123,-0.305042171018,-0.898011842369,-0.299126443308
4400000000.0,-0.902130909592,-0.293558565464,0.0978095754114,-0.299615558991,0.0978095754114,-0.299615558991,-0.902130909592,-0.293558565464
4500000000.0,-0.906013801575,-0.288157681131,0.0939257335053,-0.294356107574,0.0939257335053,-0.294356107574,-0.906013801575,-0.288157681131
4600000000.0,-0.909677635056,-0.28291824331,0.0902609285868,-0.289258269077,0.0902609285868,-0.289258269077,-0.909677635056,-0.28291824331
4700000000.0,-0.913138063681,-0.277834730209,0.0867995069313,-0.284316521034,0.0867995069313,-0.284316521034,-0.913138063681,-0.277834730209
4800000000.0,-0.916409418484,-0.272901684646,0.0835271374277,-0.279525405603,0.0835271374277,-0.279525405603,-0.916409418484,-0.272901684646
4900000000.0,-0.919504833841,-0.268113744361,0.0804306856224,-0.274879559892,0.0804306856224,-0.274879559892,-0.919504833841,-0.268113744361
5000000000.0,-0.922436360446,-0.263465664973,0.0774981007476,-0.270373738905,0.0774981007476,-0.270373738905,-0.922436360446,-0.263465664973
5100000000.0,-0.925215066676,-0.258952336958,0.0747183143482,-0.266002832529,0.0747183143482,-0.266002832529,-0.925215066676,-0.258952336958
5200000000.0,-0.927851129617,-0.254568797815,0.0720811492644,-0.2617618777,0.0720811492644,-0.2617618777,-0.927851129617,-0.254568797815
5300000000.0,-0.930353916834,-0.250310240342,0.0695772378576,-0.257646066688,0.0695772378576,-0.257646066688,-0.930353916834,-0.250310240342
5400000000.0,-0.932732059893,-0.246172017811,0.067197948486,-0.253650752261,0.067197948486,-0.253650752261,-0.932732059893,-0.246172017811
5500000000.0,-0.934993520525,-0.242149646639,0.0649353193462,-0.249771450364,0.0649353193462,-0.249771450364,-0.934993520525,-0.242149646639
5600000000.0,-0.937145650203,-0.238238807096,0.0627819988907,-0.246003840833,0.0627819988907,-0.246003840833,-0.937145650203,-0.238238807096
5700000000.0,-0.939195243852,-0.234435342457,0.0607311921217,-0.242343766537,0.0607311921217,-0.242343766537,-0.939195243852,-0.234435342457
5800000000.0,-0.941148588303,-0.230735256937,0.0587766121352,-0.238787231323,0.0587766121352,-0.238787231323,-0.941148588303,-0.230735256937
5900000000.0,-0.94301150605,-0.227134712696,0.0569124363635,-0.235330397018,0.0569124363635,-0.235330397018,-0.94301150605,-0.227134712696
6000000000.0,-0.944789394807,-0.223630026136,0.0551332670202,-0.231969579727,0.0551332670202,-0.231969579727,-0.944789394807,-0.223630026136
6100000000.0,-0.946487263295,-0.220217663677,0.0534340953112,-0.228701245608,0.0534340953112,-0.228701245608,-0.946487263295,-0.220217663677
6200000000.0,-0.948109763658,-0.216894237158,0.0518102690197,-0.225522006276,0.0518102690197,-0.225522006276,-0.948109763658,-0.216894237158
6300000000.0,-0.949661220849,-0.213656498986,0.0502574631196,-0.222428613951,0.0502574631196,-0.222428613951,-0.949661220849,-0.213656498986
6400000000.0,-0.951145659298,-0.210501337133,0.0487716531068,-0.219417956456,0.0487716531068,-0.219417956456,-0.951145659298,-0.210501337133
6500000000.0,-0.95256682714,-0.207425770052,0.0473490907741,-0.21648705213,0.0473490907741,-0.21648705213,-0.95256682714,-0.207425770052
6600000000.0,-0.953928218239,-0.204426941577,0.0459862821832,-0.213633044734,0.0459862821832,-0.213633044734,-0.953928218239,-0.204426941577
6700000000.0,-0.95523309224,-0.201502115861,0.0446799676154,-0.210853198381,0.0446799676154,-0.210853198381,-0.95523309224,-0.201502115861
6800000000.0,-0.956484492834,-0.198648672375,0.0434271033051,-0.20814489254,0.0434271033051,-0.20814489254,-0.956484492834,-0.198648672375
6900000000.0,-0.957685264417,-0.195864101014,0.042224844782,-0.205505617145,0.042224844782,-0.205505617145,-0.957685264417,-0.195864101014
7000000000.0,-0.958838067296,-0.193145997327,0.0410705316649,-0.202932967817,0.0410705316649,-0.202932967817,-0.958838067296,-0.193145997327
7100000000.0,-0.959945391582,-0.190492057876,0.0399616737678,-0.200424641227,0.0399616737678,-0.200424641227,-0.959945391582,-0.190492057876
7200000000.0,-0.961009569895,-0.187900075755,0.0388959383936,-0.197978430614,0.0388959383936,-0.197978430614,-0.961009569895,-0.187900075755
7300000000.0,-0.962032789,-0.185367936257,0.0378711387016,-0.195592221454,0.0378711387016,-0.195592221454,-0.962032789,-0.185367936257
7400000000.0,-0.963017100463,-0.182893612713,0.0368852230503,-0.193263987295,0.0368852230503,-0.193263987295,-0.963017100463,-0.182893612713
7500000000.0,-0.963964430423,-0.180475162485,0.0359362652231,-0.190991785752,0.0359362652231,-0.190991785752,-0.963964430423,-0.180475162485
7600000000.0,-0.964876588565,-0.178110723132,0.0350224554562,-0.18877375467,0.0350224554562,-0.18877375467,-0.964876588565,-0.178110723132
7700000000.0,-0.965755276365,-0.175798508735,0.0341420921965,-0.186608108454,0.0341420921965,-0.186608108454,-0.965755276365,-0.175798508735
7800000000.0,-0.966602094667,-0.173536806384,0.0332935745217,-0.184493134548,0.0332935745217,-0.184493134548,-0.966602094667,-0.173536806384
7900000000.0,-0.967418550657,-0.171323972819,0.0324753951655,-0.182427190082,0.0324753951655,-0.182427190082,-0.967418550657,-0.171323972819
8000000000.0,-0.96820606429,-0.169158431232,0.0316861340923,-0.180408698671,0.0316861340923,-0.180408698671,-0.96820606429,-0.169158431232
8100000000.0,-0.968965974215,-0.167038668208,0.0309244525743,-0.178436147354,0.0309244525743,-0.178436147354,-0.968965974215,-0.167038668208
8200000000.0,-0.969699543233,-0.164963230814,0.030189087727,-0.176508083688,0.030189087727,-0.176508083688,-0.969699543233,-0.164963230814
8300000000.0,-0.97040796335,-0.16293072383,0.029478847463,-0.174623112969,0.029478847463,-0.174623112969,-0.97040796335,-0.16293072383
8400000000.0,-0.971092360437,-0.160939807104,0.0287926058291,-0.172779895598,0.0287926058291,-0.172779895598,-0.971092360437,-0.160939807104
8500000000.0,-0.971753798541,-0.15898919304,0.028129298694,-0.17097714456,0.028129298694,-0.17097714456,-0.971753798541,-0.15898919304
8600000000.0,-0.972393283878,-0.157077644211,0.0274879197567,-0.169213623038,0.0274879197567,-0.169213623038,-0.972393283878,-0.157077644211
8700000000.0,-0.973011768531,-0.155203971077,0.0268675168496,-0.167488142136,0.0268675168496,-0.167488142136,-0.973011768531,-0.155203971077
8800000000.0,-0.973610153876,-0.153367029829,0.0262671885113,-0.165799558714,0.0262671885113,-0.165799558714,-0.973610153876,-0.153367029829
8900000000.0,-0.974189293758,-0.151565720325,0.0256860808082,-0.16414677333,0.0256860808082,-0.16414677333,-0.974189293758,-0.151565720325
9000000000.0,-0.974749997448,-0.149798984137,0.0251233843826,-0.162528728287,0.0251233843826,-0.162528728287,-0.974749997448,-0.149798984137
9100000000.0,-0.97529303238,-0.148065802692,0.0245783317122,-0.160944405764,0.0245783317122,-0.160944405764,-0.97529303238,-0.148065802692
9200000000.0,-0.9758191267,-0.146365195496,0.0240501945613,-0.159392826055,0.0240501945613,-0.159392826055,-0.9758191267,-0.146365195496
9300000000.0,-0.976328971636,-0.144696218458,0.02353828161,-0.157873045879,0.02353828161,-0.157873045879,-0.976328971636,-0.144696218458
9400000000.0,-0.976823223709,-0.143057962288,0.0230419362475,-0.156384156784,0.0230419362475,-0.156384156784,-0.976823223709,-0.143057962288
9500000000.0,-0.977302506784,-0.141449550974,0.0225605345166,-0.154925283621,0.0225605345166,-0.154925283621,-0.977302506784,-0.141449550974
9600000000.0,-0.977767413986,-0.139870140336,0.022093483197,-0.1534955831,0.022093483197,-0.1534955831,-0.977767413986,-0.139870140336
9700000000.0,-0.978218509492,-0.138318916646,0.0216402180187,-0.15209424241,0.0216402180187,-0.15209424241,-0.978218509492,-0.138318916646
9800000000.0,-0.978656330195,-0.136795095323,0.0212002019935,-0.150720477911,0.0212002019935,-0.150720477911,-0.978656330195,-0.136795095323
9900000000.0,-0.979081387263,-0.135297919684,0.020772923857,-0.149373533884,0.020772923857,-0.149373533884,-0.979081387263,-0.135297919684
10000000000.0,-0.979494167593,-0.133826659756,0.0203578966136,-0.148052681345,0.0203578966136,-0.148052681345,-0.979494167593,-0.133826659756
