freq (GHz),S11_real,S11_imag,S21_real,S21_imag,S12_real,S12_imag,S22_real,S22_imag
100000000.0,0.0129557906092,0.00347169055191,0.987038182156,-0.00584505141671,0.987038182156,-0.00584505141671,0.0129557906092,0.00347169055191
200000000.0,0.0131014443692,0.00694121549711,0.986881843145,-0.0116879558249,0.986881843145,-0.0116879558249,0.0131014443692,0.00694121549711
300000000.0,0.0132656207178,0.0104086474758,0.986701322743,-0.0175288040409,0.986701322743,-0.0175288040409,0.0132656207178,0.0104086474758
400000000.0,0.0134593949916,0.0138736387462,0.986485544679,-0.023367263857,0.986485544679,-0.023367263857,0.0134593949916,0.0138736387462
500000000.0,0.0136870057009,0.0173357445979,0.986230269319,-0.0292029047616,0.986230269319,-0.0292029047616,0.0136870057009,0.0173357445979
600000000.0,0.0139505863047,0.0207944780633,0.985933361887,-0.0350352531099,0.985933361887,-0.0350352531099,0.0139505863047,0.0207944780633
700000000.0,0.0142513680995,0.0242493296681,0.985593589574,-0.0408638121086,0.985593589574,-0.0408638121086,0.0142513680995,0.0242493296681
800000000.0,0.014590119225,0.0276997766844,0.985210182532,-0.0466880712087,0.985210182532,-0.0466880712087,0.014590119225,0.0276997766844
900000000.0,0.014967340129,0.0311452881835,0.984782638407,-0.0525075112512,0.984782638407,-0.0525075112512,0.014967340129,0.0311452881835
1000000000.0,0.0153833626474,0.0345853281025,0.984310623266,-0.0583216075985,0.984310623266,-0.0583216075985,0.0153833626474,0.0345853281025
1100000000.0,0.0158384050929,0.0380193572599,0.983793916506,-0.0641298321972,0.983793916506,-0.0641298321972,0.0158384050929,0.0380193572599
1200000000.0,0.016332605094,0.041446834766,0.983232378013,-0.0699316550259,0.983232378013,-0.0699316550259,0.016332605094,0.041446834766
1300000000.0,0.0168660402728,0.0448672190647,0.982625927494,-0.0757265451644,0.982625927494,-0.0757265451644,0.0168660402728,0.0448672190647
1400000000.0,0.0174387418554,0.0482799687357,0.981974530857,-0.0815139716203,0.981974530857,-0.0815139716203,0.0174387418554,0.0482799687357
1500000000.0,0.0180507039666,0.0516845431389,0.981278190928,-0.0872934039909,0.981278190928,-0.0872934039909,0.0180507039666,0.0516845431389
1600000000.0,0.0187018901791,0.0550804029457,0.980536940892,-0.0930643130109,0.980536940892,-0.0930643130109,0.0187018901791,0.0550804029457
1700000000.0,0.0193922382551,0.0584670105927,0.979750839563,-0.0988261710188,0.979750839563,-0.0988261710188,0.0193922382551,0.0584670105927
1800000000.0,0.0201216636628,0.0618438306749,0.97891996786,-0.104578452362,0.97891996786,-0.104578452362,0.0201216636628,0.0618438306749
1900000000.0,0.0208900622405,0.0652103302965,0.978044426149,-0.110320633755,0.978044426149,-0.110320633755,0.0208900622405,0.0652103302965
2000000000.0,0.0216973122554,0.0685659793862,0.97712433218,-0.116052194608,0.97712433218,-0.116052194608,0.0216973122554,0.0685659793862
2100000000.0,0.0225432760243,0.0719102509858,0.976159819472,-0.121772617317,0.976159819472,-0.121772617317,0.0225432760243,0.0719102509858
2200000000.0,0.0234278012102,0.0752426215178,0.975151036014,-0.12748138754,0.975151036014,-0.12748138754,0.0234278012102,0.0752426215178
2300000000.0,0.0243507218786,0.0785625710341,0.974098143211,-0.133177994453,0.974098143211,-0.133177994453,0.0243507218786,0.0785625710341
2400000000.0,0.0253118593698,0.0818695834504,0.973001315011,-0.138861930989,0.973001315011,-0.138861930989,0.0253118593698,0.0818695834504
2500000000.0,0.0263110230314,0.0851631467677,0.971860737171,-0.144532694061,0.971860737171,-0.144532694061,0.0263110230314,0.0851631467677
2600000000.0,0.0273480108419,0.0884427532821,0.97067660664,-0.150189784778,0.97067660664,-0.150189784778,0.0273480108419,0.0884427532821
2700000000.0,0.0284226099499,0.0917078997862,0.969449131013,-0.155832708653,0.969449131013,-0.155832708653,0.0284226099499,0.0917078997862
2800000000.0,0.0295345971453,0.0949580877599,0.968178528067,-0.161460975791,0.968178528067,-0.161460975791,0.0295345971453,0.0949580877599
2900000000.0,0.0306837392787,0.0981928235547,0.966865025334,-0.16707410108,0.966865025334,-0.16707410108,0.0306837392787,0.0981928235547
3000000000.0,0.0318697936369,0.10141161857,0.965508859736,-0.17267160437,0.965508859736,-0.17267160437,0.0318697936369,0.10141161857
3100000000.0,0.0330925082854,0.104613989421,0.964110277232,-0.178253010643,0.964110277232,-0.178253010643,0.0330925082854,0.104613989421
3200000000.0,0.0343516223826,0.107799458106,0.962669532512,-0.183817850181,0.962669532512,-0.183817850181,0.0343516223826,0.107799458106
3300000000.0,0.0356468664716,0.110967552156,0.961186888702,-0.189365658721,0.961186888702,-0.189365658721,0.0356468664716,0.110967552156
3400000000.0,0.0369779627544,0.114117804793,0.959662617091,-0.194895977609,0.959662617091,-0.194895977609,0.0369779627544,0.114117804793
3500000000.0,0.0383446253503,0.117249755069,0.958096996872,-0.20040835395,0.958096996872,-0.20040835395,0.0383446253503,0.117249755069
3600000000.0,0.0397465605428,0.120362948009,0.956490314895,-0.205902340744,0.956490314895,-0.205902340744,0.0397465605428,0.120362948009
3700000000.0,0.0411834670156,0.123456934746,0.954842865433,-0.211377497024,0.954842865433,-0.211377497024,0.0411834670156,0.123456934746
3800000000.0,0.0426550360813,0.126531272643,0.953154949952,-0.216833387986,0.953154949952,-0.216833387986,0.0426550360813,0.126531272643
3900000000.0,0.0441609519022,0.129585525424,0.95142687689,-0.222269585113,0.95142687689,-0.222269585113,0.0441609519022,0.129585525424
4000000000.0,0.0457008917063,0.13261926329,0.949658961442,-0.227685666295,0.949658961442,-0.227685666295,0.0457008917063,0.13261926329
4100000000.0,0.0472745259977,0.135632063028,0.947851525349,-0.233081215942,0.947851525349,-0.233081215942,0.0472745259977,0.135632063028
4200000000.0,0.0488815187638,0.138623508126,0.94600489669,-0.238455825094,0.94600489669,-0.238455825094,0.0488815187638,0.138623508126
4300000000.0,0.0505215276788,0.141593188869,0.944119409683,-0.243809091522,0.944119409683,-0.243809091522,0.0505215276788,0.141593188869
4400000000.0,0.0521942043041,0.144540702442,0.942195404476,-0.249140619833,0.942195404476,-0.249140619833,0.0521942043041,0.144540702442
4500000000.0,0.0538991942871,0.14746565302,0.940233226957,-0.254450021556,0.940233226957,-0.254450021556,0.0538991942871,0.14746565302
4600000000.0,0.055636137557,0.150367651858,0.938233228553,-0.259736915236,0.938233228553,-0.259736915236,0.055636137557,0.150367651858
4700000000.0,0.0574046685201,0.153246317374,0.936195766037,-0.265000926517,0.936195766037,-0.265000926517,0.0574046685201,0.153246317374
4800000000.0,0.0592044162519,0.156101275225,0.934121201334,-0.270241688218,0.934121201334,-0.270241688218,0.0592044162519,0.156101275225
4900000000.0,0.0610350046893,0.158932158383,0.932009901329,-0.275458840411,0.932009901329,-0.275458840411,0.0610350046893,0.158932158383
5000000000.0,0.0628960528209,0.161738607203,0.929862237678,-0.280652030486,0.929862237678,-0.280652030486,0.0628960528209,0.161738607203
5100000000.0,0.0647871748761,0.164520269488,0.927678586618,-0.285820913218,0.927678586618,-0.285820913218,0.0647871748761,0.164520269488
5200000000.0,0.0667079805133,0.167276800544,0.925459328778,-0.290965150828,0.925459328778,-0.290965150828,0.0667079805133,0.167276800544
5300000000.0,0.0686580750068,0.170007863241,0.923204848993,-0.296084413032,0.923204848993,-0.296084413032,0.0686580750068,0.170007863241
5400000000.0,0.0706370594333,0.172713128057,0.920915536115,-0.301178377097,0.920915536115,-0.301178377097,0.0706370594333,0.172713128057
5500000000.0,0.0726445308564,0.175392273124,0.918591782832,-0.306246727882,0.918591782832,-0.306246727882,0.0726445308564,0.175392273124
5600000000.0,0.0746800825111,0.178044984275,0.91623398548,-0.311289157883,0.91623398548,-0.311289157883,0.0746800825111,0.178044984275
5700000000.0,0.0767433039867,0.180670955069,0.913842543862,-0.316305367266,0.913842543862,-0.316305367266,0.0767433039867,0.180670955069
5800000000.0,0.0788337814082,0.183269886833,0.911417861065,-0.321295063898,0.911417861065,-0.321295063898,0.0788337814082,0.183269886833
5900000000.0,0.0809510976179,0.185841488682,0.90896034328,-0.326257963378,0.90896034328,-0.326257963378,0.0809510976179,0.185841488682
6000000000.0,0.0830948323546,0.188385477546,0.906470399618,-0.331193789055,0.906470399618,-0.331193789055,0.0830948323546,0.188385477546
6100000000.0,0.0852645624319,0.190901578187,0.903948441938,-0.33610227205,0.903948441938,-0.33610227205,0.0852645624319,0.190901578187
6200000000.0,0.0874598619157,0.19338952321,0.901394884663,-0.34098315127,0.901394884663,-0.34098315127,0.0874598619157,0.19338952321
6300000000.0,0.0896803022998,0.195849053078,0.89881014461,-0.345836173414,0.89881014461,-0.345836173414,0.0896803022998,0.195849053078
6400000000.0,0.0919254526804,0.198279916114,0.896194640807,-0.350661092982,0.896194640807,-0.350661092982,0.0919254526804,0.198279916114
6500000000.0,0.0941948799292,0.200681868505,0.893548794331,-0.355457672277,0.893548794331,-0.355457672277,0.0941948799292,0.200681868505
6600000000.0,0.0964881488647,0.203054674298,0.890873028123,-0.360225681398,0.890873028123,-0.360225681398,0.0964881488647,0.203054674298
6700000000.0,0.098804822422,0.205398105391,0.888167766831,-0.364964898239,0.888167766831,-0.364964898239,0.098804822422,0.205398105391
6800000000.0,0.101144461821,0.20771194153,0.88543343663,-0.369675108475,0.88543343663,-0.369675108475,0.101144461821,0.20771194153
6900000000.0,0.103506626734,0.209995970286,0.882670465063,-0.374356105546,0.882670465063,-0.374356105546,0.103506626734,0.209995970286
7000000000.0,0.105890875449,0.212249987045,0.87987928087,-0.379007690645,0.87987928087,-0.379007690645,0.105890875449,0.212249987045
7100000000.0,0.108296765032,0.214473794979,0.877060313832,-0.38362967269,0.877060313832,-0.38362967269,0.108296765032,0.214473794979
7200000000.0,0.110723851489,0.216667205026,0.874213994602,-0.388221868299,0.874213994602,-0.388221868299,0.110723851489,0.216667205026
7300000000.0,0.113171689928,0.21883003586,0.871340754549,-0.392784101768,0.871340754549,-0.392784101768,0.113171689928,0.21883003586
7400000000.0,0.115639834707,0.220962113858,0.868441025602,-0.397316205027,0.868441025602,-0.397316205027,0.115639834707,0.220962113858
7500000000.0,0.1181278396,0.223063273064,0.865515240093,-0.401818017614,0.865515240093,-0.401818017614,0.1181278396,0.223063273064
7600000000.0,0.120635257941,0.225133355152,0.862563830603,-0.406289386631,0.862563830603,-0.406289386631,0.120635257941,0.225133355152
7700000000.0,0.123161642778,0.227172209381,0.859587229814,-0.410730166703,0.859587229814,-0.410730166703,0.123161642778,0.227172209381
7800000000.0,0.12570654702,0.229179692555,0.856585870358,-0.415140219932,0.856585870358,-0.415140219932,0.12570654702,0.229179692555
7900000000.0,0.128269523586,0.231155668968,0.853560184672,-0.419519415847,0.853560184672,-0.419519415847,0.128269523586,0.231155668968
8000000000.0,0.130850125541,0.233100010358,0.850510604852,-0.423867631357,0.850510604852,-0.423867631357,0.130850125541,0.233100010358
8100000000.0,0.133447906246,0.235012595852,0.847437562516,-0.42818475069,0.847437562516,-0.42818475069,0.133447906246,0.235012595852
8200000000.0,0.136062419489,0.236893311908,0.844341488659,-0.432470665342,0.844341488659,-0.432470665342,0.136062419489,0.236893311908
8300000000.0,0.138693219625,0.238742052256,0.841222813523,-0.436725274014,0.841222813523,-0.436725274014,0.138693219625,0.238742052256
8400000000.0,0.141339861708,0.240558717836,0.838081966456,-0.44094848255,0.838081966456,-0.44094848255,0.141339861708,0.240558717836
8500000000.0,0.144001901624,0.242343216737,0.834919375788,-0.445140203872,0.834919375788,-0.445140203872,0.144001901624,0.242343216737
8600000000.0,0.146678896213,0.244095464123,0.831735468696,-0.449300357912,0.831735468696,-0.449300357912,0.146678896213,0.244095464123
8700000000.0,0.149370403402,0.245815382172,0.828530671081,-0.453428871546,0.828530671081,-0.453428871546,0.149370403402,0.245815382172
8800000000.0,0.152075982324,0.247502899997,0.825305407445,-0.457525678516,0.825305407445,-0.457525678516,0.152075982324,0.247502899997
8900000000.0,0.154795193436,0.249157953581,0.82206010077,-0.461590719363,0.82206010077,-0.461590719363,0.154795193436,0.249157953581
9000000000.0,0.157527598643,0.250780485691,0.818795172396,-0.465623941343,0.818795172396,-0.465623941343,0.157527598643,0.250780485691
9100000000.0,0.160272761404,0.252370445812,0.815511041914,-0.469625298356,0.815511041914,-0.469625298356,0.160272761404,0.252370445812
9200000000.0,0.16303024685,0.25392779006,0.812208127045,-0.473594750864,0.812208127045,-0.473594750864,0.16303024685,0.25392779006
9300000000.0,0.165799621892,0.255452481101,0.808886843537,-0.477532265807,0.808886843537,-0.477532265807,0.165799621892,0.255452481101
9400000000.0,0.168580455323,0.256944488075,0.805547605054,-0.481437816523,0.805547605054,-0.481437816523,0.168580455323,0.256944488075
9500000000.0,0.171372317928,0.258403786505,0.802190823074,-0.485311382659,0.802190823074,-0.485311382659,0.171372317928,0.258403786505
9600000000.0,0.174174782577,0.259830358213,0.798816906786,-0.489152950089,0.798816906786,-0.489152950089,0.174174782577,0.259830358213
9700000000.0,0.176987424331,0.261224191234,0.795426262995,-0.492962510825,0.795426262995,-0.492962510825,0.176987424331,0.261224191234
9800000000.0,0.179809820528,0.262585279728,0.792019296022,-0.496740062926,0.792019296022,-0.496740062926,0.179809820528,0.262585279728
9900000000.0,0.182641550881,0.26391362389,0.788596407616,-0.500485610409,0.788596407616,-0.500485610409,0.182641550881,0.26391362389
10000000000.0,0.185482197567,0.265209229855,0.785157996859,-0.504199163156,0.785157996859,-0.504199163156,0.185482197567,0.265209229855
