freq (GHz),S11_real,S11_imag,S21_real,S21_imag,S12_real,S12_imag,S22_real,S22_imag
100000000.0,0.000668420412877,-0.00122405778502,0.999307847238,-0.0046328505395,0.999307847238,-0.0046328505395,0.000668420412877,-0.00122405778502
200000000.0,0.000653185112581,-0.00244810232064,0.999266036458,-0.00926569002473,0.999266036458,-0.00926569002473,0.000653185112581,-0.00244810232064
300000000.0,0.000625426676105,-0.0036720611573,0.999202431297,-0.0138984911917,0.999202431297,-0.0138984911917,0.000625426676105,-0.0036720611573
400000000.0,0.000585729526599,-0.00489585751897,0.999116443233,-0.0185311961276,0.999116443233,-0.0185311961276,0.000585729526599,-0.00489585751897
500000000.0,0.000534317913242,-0.00611940998724,0.999007844105,-0.0231637334816,0.999007844105,-0.0231637334816,0.000534317913242,-0.00611940998724
600000000.0,0.00047130604533,-0.00734263355179,0.998876516276,-0.0277960234071,0.998876516276,-0.0277960234071,0.00047130604533,-0.00734263355179
700000000.0,0.000396761671323,-0.0085654403226,0.998722389279,-0.0324279799389,0.998722389279,-0.0324279799389,0.000396761671323,-0.0085654403226
800000000.0,0.00031072929865,-0.00978774001936,0.998545416767,-0.0370595123743,0.998545416767,-0.0370595123743,0.00031072929865,-0.00978774001936
900000000.0,0.000213240549551,-0.0110094403252,0.998345566295,-0.0416905261709,0.998345566295,-0.0416905261709,0.000213240549551,-0.0110094403252
1000000000.0,0.000104319425481,-0.0122304471536,0.998122814175,-0.0463209235723,0.998122814175,-0.0463209235723,0.000104319425481,-0.0122304471536
1100000000.0,-1.60147535586e-05,-0.0134506648573,0.997877142636,-0.0509506040697,0.997877142636,-0.0509506040697,-1.60147535586e-05,-0.0134506648573
1200000000.0,-0.000147745586717,-0.0146699963975,0.997608538153,-0.0555794647552,0.997608538153,-0.0555794647552,-0.000147745586717,-0.0146699963975
1300000000.0,-0.000290858474446,-0.0158883434832,0.997316990404,-0.060207400602,0.997316990404,-0.060207400602,-0.000290858474447,-0.0158883434832
1400000000.0,-0.00044533987606,-0.0171056066899,0.997002491603,-0.0648343046918,0.997002491603,-0.0648343046918,-0.00044533987606,-0.0171056066899
1500000000.0,-0.000611176797274,-0.0183216855611,0.996665036045,-0.0694600684033,0.996665036045,-0.0694600684033,-0.000611176797274,-0.0183216855611
1600000000.0,-0.000788356424725,-0.0195364786983,0.996304619805,-0.0740845815724,0.996304619805,-0.0740845815724,-0.000788356424725,-0.0195364786983
1700000000.0,-0.000976865857783,-0.0207498838395,0.995921240518,-0.0787077326286,0.995921240518,-0.0787077326286,-0.000976865857782,-0.0207498838395
1800000000.0,-0.00117669190683,-0.0219617979309,0.995514897228,-0.0833294087151,0.995514897228,-0.0833294087151,-0.00117669190683,-0.0219617979309
1900000000.0,-0.00138782093815,-0.0231721171915,0.995085590277,-0.0879494957935,0.995085590277,-0.0879494957935,-0.00138782093815,-0.0231721171915
2000000000.0,-0.00161023875232,-0.0243807371721,0.994633321225,-0.0925678787376,0.994633321225,-0.0925678787376,-0.00161023875232,-0.0243807371721
2100000000.0,-0.00184393048722,-0.0255875528102,0.99415809279,-0.097184441418,0.99415809279,-0.097184441418,-0.00184393048722,-0.0255875528102
2200000000.0,-0.00208888053944,-0.0267924584807,0.993659908808,-0.101799066778,0.993659908808,-0.101799066778,-0.00208888053944,-0.0267924584807
2300000000.0,-0.00234507249969,-0.027995348044,0.993138774195,-0.106411636903,0.993138774195,-0.106411636903,-0.00234507249969,-0.027995348044
2400000000.0,-0.00261248909915,-0.0291961148903,0.99259469493,-0.111022033087,0.99259469493,-0.111022033087,-0.00261248909915,-0.0291961148903
2500000000.0,-0.00289111216434,-0.0303946519823,0.992027678034,-0.115630135887,0.992027678034,-0.115630135887,-0.00289111216434,-0.0303946519823
2600000000.0,-0.00318092257879,-0.0315908518956,0.991437731558,-0.120235825183,0.991437731558,-0.120235825183,-0.00318092257879,-0.0315908518956
2700000000.0,-0.00348190025031,-0.0327846068571,0.990824864577,-0.124838980229,0.990824864577,-0.124838980229,-0.00348190025032,-0.0327846068571
2800000000.0,-0.00379402408272,-0.0339758087821,0.99018908718,-0.129439479698,0.99018908718,-0.129439479698,-0.00379402408272,-0.0339758087821
2900000000.0,-0.00411727195134,-0.0351643493092,0.989530410469,-0.134037201731,0.989530410469,-0.134037201731,-0.00411727195134,-0.0351643493092
3000000000.0,-0.00445162068173,-0.0363501198349,0.988848846556,-0.138632023979,0.988848846556,-0.138632023979,-0.00445162068173,-0.0363501198349
3100000000.0,-0.00479704603095,-0.0375330115466,0.988144408559,-0.143223823645,0.988144408559,-0.143223823645,-0.00479704603095,-0.0375330115466
3200000000.0,-0.00515352267123,-0.0387129154541,0.987417110605,-0.14781247752,0.987417110605,-0.14781247752,-0.00515352267123,-0.0387129154541
3300000000.0,-0.00552102417562,-0.0398897224208,0.986666967828,-0.152397862025,0.986666967828,-0.152397862025,-0.00552102417562,-0.0398897224208
3400000000.0,-0.00589952300529,-0.0410633231936,0.985893996371,-0.156979853243,0.985893996371,-0.156979853243,-0.00589952300529,-0.0410633231936
3500000000.0,-0.00628899049848,-0.0422336084326,0.985098213384,-0.161558326957,0.985098213384,-0.161558326957,-0.00628899049848,-0.0422336084326
3600000000.0,-0.0066893968607,-0.0434004687392,0.984279637029,-0.166133158678,0.984279637029,-0.166133158678,-0.0066893968607,-0.0434004687392
3700000000.0,-0.00710071115626,-0.0445637946838,0.983438286474,-0.170704223681,0.983438286474,-0.170704223681,-0.00710071115626,-0.0445637946838
3800000000.0,-0.00752290130081,-0.0457234768338,0.982574181903,-0.175271397034,0.982574181903,-0.175271397034,-0.00752290130081,-0.0457234768338
3900000000.0,-0.00795593405496,-0.0468794057793,0.981687344509,-0.17983455363,0.981687344509,-0.17983455363,-0.00795593405496,-0.0468794057793
4000000000.0,-0.00839977501875,-0.0480314721597,0.980777796498,-0.184393568211,0.980777796498,-0.184393568211,-0.00839977501875,-0.0480314721597
4100000000.0,-0.00885438862704,-0.0491795666893,0.979845561088,-0.188948315401,0.979845561088,-0.188948315401,-0.00885438862704,-0.0491795666893
4200000000.0,-0.00931973814561,-0.0503235801818,0.978890662511,-0.193498669729,0.978890662511,-0.193498669729,-0.00931973814561,-0.0503235801818
4300000000.0,-0.00979578566805,-0.0514634035755,0.977913126012,-0.198044505661,0.977913126012,-0.198044505661,-0.00979578566805,-0.0514634035755
4400000000.0,-0.0102824921133,-0.0525989279573,0.976912977846,-0.202585697617,0.976912977846,-0.202585697617,-0.0102824921133,-0.0525989279573
4500000000.0,-0.0107798172239,-0.0537300445861,0.975890245284,-0.207122120004,0.975890245284,-0.207122120004,-0.0107798172239,-0.0537300445861
4600000000.0,-0.0112877195647,-0.0548566449163,0.974844956604,-0.211653647238,0.974844956604,-0.211653647238,-0.0112877195647,-0.0548566449163
4700000000.0,-0.0118061565222,-0.0559786206211,0.973777141096,-0.216180153765,0.973777141096,-0.216180153765,-0.0118061565222,-0.0559786206211
4800000000.0,-0.0123350843046,-0.0570958636143,0.972686829057,-0.220701514086,0.972686829057,-0.220701514086,-0.0123350843046,-0.0570958636143
4900000000.0,-0.0128744579421,-0.0582082660732,0.971574051793,-0.225217602781,0.971574051793,-0.225217602781,-0.0128744579421,-0.0582082660732
5000000000.0,-0.013424231288,-0.0593157204601,0.970438841612,-0.22972829453,0.970438841612,-0.22972829453,-0.013424231288,-0.0593157204601
5100000000.0,-0.0139843570199,-0.0604181195438,0.969281231826,-0.234233464134,0.969281231826,-0.234233464134,-0.0139843570199,-0.0604181195438
5200000000.0,-0.0145547866415,-0.0615153564211,0.968101256744,-0.238732986536,0.968101256744,-0.238732986536,-0.0145547866415,-0.0615153564211
5300000000.0,-0.0151354704853,-0.0626073245372,0.966898951674,-0.243226736843,0.966898951674,-0.243226736843,-0.0151354704853,-0.0626073245372
5400000000.0,-0.0157263577147,-0.0636939177066,0.965674352916,-0.247714590347,0.965674352916,-0.247714590347,-0.0157263577147,-0.0636939177066
5500000000.0,-0.0163273963277,-0.0647750301335,0.964427497762,-0.25219642254,0.964427497762,-0.25219642254,-0.0163273963277,-0.0647750301335
5600000000.0,-0.0169385331598,-0.0658505564312,0.963158424487,-0.256672109139,0.963158424487,-0.256672109139,-0.0169385331598,-0.0658505564312
5700000000.0,-0.0175597138886,-0.0669203916422,0.961867172348,-0.261141526102,0.961867172348,-0.261141526102,-0.0175597138886,-0.0669203916422
5800000000.0,-0.0181908830373,-0.0679844312577,0.960553781583,-0.265604549649,0.960553781583,-0.265604549649,-0.0181908830373,-0.0679844312577
5900000000.0,-0.0188319839799,-0.0690425712363,0.959218293398,-0.270061056277,0.959218293398,-0.270061056277,-0.0188319839799,-0.0690425712363
6000000000.0,-0.0194829589456,-0.0700947080231,0.957860749971,-0.274510922778,0.957860749971,-0.274510922778,-0.0194829589456,-0.0700947080231
6100000000.0,-0.0201437490244,-0.0711407385682,0.956481194439,-0.278954026261,0.956481194439,-0.278954026261,-0.0201437490244,-0.0711407385682
6200000000.0,-0.0208142941729,-0.072180560345,0.9550796709,-0.283390244164,0.9550796709,-0.283390244164,-0.0208142941729,-0.072180560345
6300000000.0,-0.0214945332196,-0.0732140713682,0.9536562244,-0.287819454275,0.9536562244,-0.287819454275,-0.0214945332196,-0.0732140713682
6400000000.0,-0.0221844038715,-0.0742411702115,0.952210900932,-0.292241534743,0.952210900932,-0.292241534743,-0.0221844038715,-0.0742411702115
6500000000.0,-0.0228838427208,-0.0752617560253,0.950743747428,-0.2966563641,0.950743747428,-0.2966563641,-0.0228838427208,-0.0752617560253
6600000000.0,-0.0235927852512,-0.0762757285537,0.949254811753,-0.301063821273,0.949254811753,-0.301063821273,-0.0235927852512,-0.0762757285537
6700000000.0,-0.0243111658452,-0.0772829881516,0.947744142698,-0.305463785603,0.947744142698,-0.305463785603,-0.0243111658452,-0.0772829881516
6800000000.0,-0.0250389177916,-0.0782834358015,0.946211789972,-0.309856136854,0.946211789972,-0.309856136854,-0.0250389177916,-0.0782834358015
6900000000.0,-0.0257759732928,-0.0792769731296,0.944657804197,-0.314240755235,0.944657804197,-0.314240755235,-0.0257759732928,-0.0792769731296
7000000000.0,-0.0265222634732,-0.0802635024228,0.943082236899,-0.31861752141,0.943082236899,-0.31861752141,-0.0265222634732,-0.0802635024228
7100000000.0,-0.0272777183865,-0.0812429266437,0.941485140502,-0.322986316514,0.941485140502,-0.322986316514,-0.0272777183865,-0.0812429266437
7200000000.0,-0.0280422670249,-0.0822151494472,0.939866568317,-0.327347022165,0.939866568317,-0.327347022165,-0.0280422670249,-0.0822151494472
7300000000.0,-0.0288158373272,-0.0831800751952,0.938226574538,-0.33169952048,0.938226574538,-0.33169952048,-0.0288158373272,-0.0831800751952
7400000000.0,-0.0295983561878,-0.0841376089727,0.93656521423,-0.336043694088,0.93656521423,-0.336043694088,-0.0295983561878,-0.0841376089727
7500000000.0,-0.0303897494656,-0.0850876566017,0.934882543325,-0.340379426142,0.934882543325,-0.340379426142,-0.0303897494656,-0.0850876566017
7600000000.0,-0.0311899419937,-0.0860301246571,0.933178618607,-0.344706600331,0.933178618607,-0.344706600331,-0.0311899419937,-0.0860301246571
7700000000.0,-0.0319988575884,-0.0869649204803,0.931453497711,-0.349025100895,0.931453497711,-0.349025100895,-0.0319988575884,-0.0869649204803
7800000000.0,-0.0328164190592,-0.0878919521939,0.929707239108,-0.353334812636,0.929707239108,-0.353334812636,-0.0328164190592,-0.0878919521939
7900000000.0,-0.0336425482187,-0.0888111287155,0.927939902096,-0.357635620927,0.927939902096,-0.357635620927,-0.0336425482187,-0.0888111287155
8000000000.0,-0.0344771658925,-0.0897223597717,0.926151546796,-0.361927411729,0.926151546796,-0.361927411729,-0.0344771658925,-0.0897223597717
8100000000.0,-0.0353201919298,-0.0906255559114,0.924342234138,-0.366210071599,0.924342234138,-0.366210071599,-0.0353201919298,-0.0906255559114
8200000000.0,-0.0361715452136,-0.091520628519,0.922512025851,-0.370483487701,0.922512025851,-0.370483487701,-0.0361715452136,-0.091520628519
8300000000.0,-0.0370311436715,-0.0924074898279,0.920660984455,-0.374747547818,0.920660984455,-0.374747547818,-0.0370311436715,-0.0924074898279
8400000000.0,-0.0378989042866,-0.0932860529327,0.918789173252,-0.379002140361,0.918789173252,-0.379002140361,-0.0378989042866,-0.0932860529327
8500000000.0,-0.0387747431083,-0.0941562318023,0.916896656314,-0.383247154381,0.916896656314,-0.383247154381,-0.0387747431083,-0.0941562318023
8600000000.0,-0.0396585752637,-0.0950179412919,0.914983498473,-0.387482479577,0.914983498473,-0.387482479577,-0.0396585752637,-0.0950179412919
8700000000.0,-0.0405503149687,-0.095871097155,0.913049765311,-0.391708006308,0.913049765311,-0.391708006308,-0.0405503149687,-0.095871097155
8800000000.0,-0.0414498755398,-0.0967156160556,0.911095523149,-0.3959236256,0.911095523149,-0.3959236256,-0.0414498755398,-0.0967156160556
8900000000.0,-0.0423571694054,-0.0975514155795,0.909120839038,-0.400129229157,0.909120839038,-0.400129229157,-0.0423571694054,-0.0975514155795
9000000000.0,-0.0432721081177,-0.0983784142459,0.907125780747,-0.404324709369,0.907125780747,-0.404324709369,-0.0432721081177,-0.0983784142459
9100000000.0,-0.0441946023649,-0.0991965315182,0.905110416752,-0.408509959319,0.905110416752,-0.408509959319,-0.0441946023649,-0.0991965315182
9200000000.0,-0.0451245619827,-0.100005687815,0.903074816226,-0.412684872797,0.903074816226,-0.412684872797,-0.0451245619827,-0.100005687815
9300000000.0,-0.0460618959671,-0.100805804522,0.901019049027,-0.416849344299,0.901019049027,-0.416849344299,-0.0460618959671,-0.100805804522
9400000000.0,-0.0470065124861,-0.101596803999,0.898943185685,-0.421003269043,0.898943185685,-0.421003269043,-0.0470065124861,-0.101596803999
9500000000.0,-0.0479583188926,-0.102378609594,0.896847297398,-0.425146542974,0.896847297398,-0.425146542974,-0.0479583188926,-0.102378609594
9600000000.0,-0.048917221737,-0.103151145652,0.894731456012,-0.42927906277,0.894731456012,-0.42927906277,-0.048917221737,-0.103151145652
9700000000.0,-0.0498831267794,-0.103914337522,0.892595734013,-0.433400725848,0.892595734013,-0.433400725848,-0.0498831267794,-0.103914337522
9800000000.0,-0.0508559390026,-0.104668111571,0.890440204517,-0.437511430374,0.890440204517,-0.437511430374,-0.0508559390026,-0.104668111571
9900000000.0,-0.0518355626252,-0.105412395189,0.888264941258,-0.44161107527,0.888264941258,-0.44161107527,-0.0518355626252,-0.105412395189
10000000000.0,-0.0528219011144,-0.106147116802,0.886070018575,-0.445699560215,0.886070018575,-0.445699560215,-0.0528219011144,-0.106147116802
