freq (GHz),S11_real,S11_imag,S21_real,S21_imag,S12_real,S12_imag,S22_real,S22_imag
100000000.0,0.000820171955325,-0.00557118810676,0.999075091582,-0.00789560071622,0.999075091582,-0.00789560071622,0.000820171955325,-0.00557118810676
200000000.0,0.000687563853461,-0.0111405807308,0.998922590817,-0.0157893913424,0.998922590817,-0.0157893913424,0.000687563853461,-0.0111405807308
300000000.0,0.000465528970116,-0.0167064781564,0.998678272687,-0.0236797225981,0.998678272687,-0.0236797225981,0.000465528970116,-0.0167064781564
400000000.0,0.000154925610597,-0.0222671798771,0.998341490278,-0.0315649277769,0.998341490278,-0.0315649277769,0.000154925610597,-0.0222671798771
500000000.0,-0.000243809217996,-0.0278209856549,0.997912101544,-0.0394433359178,0.997912101544,-0.0394433359178,-0.000243809217996,-0.0278209856549
600000000.0,-0.00073033846648,-0.0333661977274,0.997390148051,-0.0473132762849,0.997390148051,-0.0473132762849,-0.000730338466479,-0.0333661977274
700000000.0,-0.00130434353962,-0.0389011227102,0.996775773344,-0.0551730811499,0.996775773344,-0.0551730811499,-0.00130434353962,-0.0389011227102
800000000.0,-0.00196549471256,-0.0444240732968,0.996069193063,-0.0630210879304,0.996069193063,-0.0630210879304,-0.00196549471256,-0.0444240732968
900000000.0,-0.00271343812888,-0.0499333698314,0.995270681498,-0.0708556410138,0.995270681498,-0.0708556410138,-0.00271343812888,-0.0499333698314
1000000000.0,-0.00354778939071,-0.0554273417961,0.994380564616,-0.0786750934025,0.994380564616,-0.0786750934025,-0.00354778939071,-0.0554273417961
1100000000.0,-0.00446813018474,-0.0609043292341,0.993399215998,-0.0864778082438,0.993399215998,-0.0864778082438,-0.00446813018474,-0.0609043292341
1200000000.0,-0.00547400646803,-0.0663626841228,0.992327054234,-0.0942621602779,0.992327054234,-0.0942621602779,-0.00547400646803,-0.0663626841228
1300000000.0,-0.00656492752809,-0.0718007717031,0.99116454108,-0.102026537223,0.99116454108,-0.102026537223,-0.00656492752809,-0.0718007717031
1400000000.0,-0.00774036557029,-0.0772169717708,0.989912180052,-0.109769341109,0.989912180052,-0.109769341109,-0.00774036557029,-0.0772169717708
1500000000.0,-0.00899975564476,-0.082609679931,0.988570515251,-0.117488989566,0.988570515251,-0.117488989566,-0.00899975564476,-0.082609679931
1600000000.0,-0.0103424958046,-0.087977308818,0.987140130338,-0.125183917066,0.987140130338,-0.125183917066,-0.0103424958046,-0.087977308818
1700000000.0,-0.0117679474302,-0.0933182892794,0.985621647584,-0.132852576134,0.985621647584,-0.132852576134,-0.0117679474302,-0.0933182892794
1800000000.0,-0.0132754356793,-0.0986310715264,0.984015726956,-0.140493438513,0.984015726956,-0.140493438513,-0.0132754356793,-0.0986310715264
1900000000.0,-0.0148642500344,-0.103914126248,0.982323065225,-0.148104996292,0.982323065225,-0.148104996292,-0.0148642500344,-0.103914126248
2000000000.0,-0.0165336449309,-0.109165945689,0.980544395075,-0.155685762999,0.980544395075,-0.155685762999,-0.0165336449309,-0.109165945689
2100000000.0,-0.0182828404511,-0.114385044692,0.978680484202,-0.163234274651,0.978680484202,-0.163234274651,-0.0182828404511,-0.114385044692
2200000000.0,-0.0201110230764,-0.119569961704,0.976732134404,-0.17074909077,0.976732134404,-0.17074909077,-0.0201110230764,-0.119569961704
2300000000.0,-0.0220173464884,-0.124719259736,0.97470018065,-0.178228795353,0.97470018065,-0.178228795353,-0.0220173464884,-0.124719259736
2400000000.0,-0.0240009324145,-0.129831527298,0.972585490133,-0.185671997811,0.972585490133,-0.185671997811,-0.0240009324145,-0.129831527298
2500000000.0,-0.0260608715128,-0.134905379278,0.970388961303,-0.193077333857,0.970388961303,-0.193077333857,-0.0260608715128,-0.134905379278
2600000000.0,-0.0281962242914,-0.139939457794,0.968111522876,-0.200443466356,0.968111522876,-0.200443466356,-0.0281962242914,-0.139939457794
2700000000.0,-0.0304060220606,-0.144932432993,0.965754132829,-0.207769086143,0.965754132829,-0.207769086143,-0.0304060220606,-0.144932432993
2800000000.0,-0.0326892679121,-0.149883003818,0.96331777737,-0.215052912778,0.96331777737,-0.215052912778,-0.0326892679121,-0.149883003818
2900000000.0,-0.0350449377249,-0.154789898727,0.960803469896,-0.22229369528,0.960803469896,-0.22229369528,-0.0350449377249,-0.154789898727
3000000000.0,-0.0374719811931,-0.159651876365,0.958212249932,-0.229490212799,0.958212249932,-0.229490212799,-0.0374719811931,-0.159651876365
3100000000.0,-0.0399693228745,-0.164467726203,0.955545182049,-0.236641275257,0.955545182049,-0.236641275257,-0.0399693228745,-0.164467726203
3200000000.0,-0.0425358632568,-0.169236269126,0.952803354781,-0.24374572394,0.952803354781,-0.24374572394,-0.0425358632568,-0.169236269126
3300000000.0,-0.0451704798389,-0.173956357976,0.949987879516,-0.250802432042,0.949987879516,-0.250802432042,-0.0451704798389,-0.173956357976
3400000000.0,-0.0478720282261,-0.178626878055,0.947099889385,-0.257810305175,0.947099889385,-0.257810305175,-0.0478720282261,-0.178626878055
3500000000.0,-0.0506393432353,-0.183246747581,0.944140538144,-0.264768281821,0.944140538144,-0.264768281821,-0.0506393432353,-0.183246747581
3600000000.0,-0.0534712400099,-0.187814918103,0.94111099904,-0.271675333751,0.94111099904,-0.271675333751,-0.0534712400099,-0.187814918103
3700000000.0,-0.056366515141,-0.192330374865,0.938012463682,-0.278530466396,0.938012463682,-0.278530466396,-0.056366515141,-0.192330374865
3800000000.0,-0.0593239477931,-0.196792137137,0.934846140899,-0.285332719169,0.934846140899,-0.285332719169,-0.0593239477931,-0.196792137137
3900000000.0,-0.062342300833,-0.201199258492,0.931613255609,-0.292081165755,0.931613255609,-0.292081165755,-0.062342300833,-0.201199258492
4000000000.0,-0.0654203219593,-0.205550827046,0.928315047674,-0.298774914343,0.928315047674,-0.298774914343,-0.0654203219593,-0.205550827046
4100000000.0,-0.0685567448304,-0.209845965652,0.924952770769,-0.305413107828,0.924952770769,-0.305413107828,-0.0685567448304,-0.209845965652
4200000000.0,-0.0717502901908,-0.214083832058,0.921527691244,-0.311994923964,0.921527691244,-0.311994923964,-0.0717502901908,-0.214083832058
4300000000.0,-0.0749996669911,-0.218263619011,0.918041087002,-0.318519575477,0.918041087002,-0.318519575477,-0.0749996669911,-0.218263619011
4400000000.0,-0.0783035735032,-0.222384554337,0.914494246376,-0.324986310135,0.914494246376,-0.324986310135,-0.0783035735032,-0.222384554337
4500000000.0,-0.0816606984269,-0.226445900963,0.910888467017,-0.331394410785,0.910888467017,-0.331394410785,-0.0816606984269,-0.226445900963
4600000000.0,-0.0850697219865,-0.230446956918,0.907225054792,-0.337743195339,0.907225054792,-0.337743195339,-0.0850697219865,-0.230446956918
4700000000.0,-0.088529317017,-0.234387055278,0.903505322695,-0.344032016733,0.903505322695,-0.344032016733,-0.088529317017,-0.234387055278
4800000000.0,-0.092038150038,-0.238265564086,0.899730589765,-0.35026026284,0.899730589765,-0.35026026284,-0.092038150038,-0.238265564086
4900000000.0,-0.0955948823124,-0.24208188623,0.89590218003,-0.356427356352,0.89590218003,-0.356427356352,-0.0955948823124,-0.24208188623
5000000000.0,-0.0991981708918,-0.245835459287,0.892021421449,-0.362532754623,0.892021421449,-0.362532754623,-0.0991981708918,-0.245835459287
5100000000.0,-0.102846669643,-0.249525755332,0.88808964489,-0.368575949479,0.88808964489,-0.368575949479,-0.102846669643,-0.249525755332
5200000000.0,-0.106539030261,-0.253152280715,0.88410818311,-0.374556466994,0.88410818311,-0.374556466994,-0.106539030261,-0.253152280715
5300000000.0,-0.110273903256,-0.256714575802,0.880078369763,-0.380473867235,0.880078369763,-0.380473867235,-0.110273903256,-0.256714575802
5400000000.0,-0.11404993893,-0.260212214689,0.876001538423,-0.386327743974,0.876001538423,-0.386327743974,-0.11404993893,-0.260212214689
5500000000.0,-0.117865788323,-0.263644804888,0.871879021634,-0.39211772437,0.871879021634,-0.39211772437,-0.117865788323,-0.263644804888
5600000000.0,-0.121720104148,-0.267011986975,0.867712149975,-0.397843468628,0.867712149975,-0.397843468628,-0.121720104148,-0.267011986975
5700000000.0,-0.125611541692,-0.270313434224,0.86350225115,-0.403504669621,0.86350225115,-0.403504669621,-0.125611541692,-0.270313434224
5800000000.0,-0.129538759702,-0.273548852203,0.859250649103,-0.409101052494,0.859250649103,-0.409101052494,-0.129538759702,-0.273548852203
5900000000.0,-0.133500421245,-0.27671797835,0.854958663156,-0.414632374241,0.854958663156,-0.414632374241,-0.133500421245,-0.27671797835
6000000000.0,-0.137495194542,-0.27982058153,0.850627607172,-0.420098423254,0.850627607172,-0.420098423254,-0.137495194542,-0.27982058153
6100000000.0,-0.14152175378,-0.282856461563,0.84625878874,-0.425499018859,0.84625878874,-0.425499018859,-0.14152175378,-0.282856461563
6200000000.0,-0.145578779891,-0.285825448731,0.841853508392,-0.43083401082,0.841853508392,-0.43083401082,-0.145578779891,-0.285825448731
6300000000.0,-0.149664961316,-0.288727403273,0.837413058839,-0.436103278833,0.837413058839,-0.436103278833,-0.149664961316,-0.288727403273
6400000000.0,-0.153778994734,-0.291562214853,0.832938724238,-0.441306731996,0.832938724238,-0.441306731996,-0.153778994734,-0.291562214853
6500000000.0,-0.157919585767,-0.294329802017,0.828431779488,-0.446444308263,0.828431779488,-0.446444308263,-0.157919585767,-0.294329802017
6600000000.0,-0.162085449657,-0.297030111629,0.823893489542,-0.451515973885,0.823893489542,-0.451515973885,-0.162085449657,-0.297030111629
6700000000.0,-0.166275311919,-0.2996631183,0.819325108763,-0.456521722832,0.819325108763,-0.456521722832,-0.166275311919,-0.2996631183
6800000000.0,-0.170487908965,-0.302228823795,0.814727880289,-0.461461576206,0.814727880289,-0.461461576206,-0.170487908965,-0.302228823795
6900000000.0,-0.174721988698,-0.304727256434,0.81010303544,-0.466335581637,0.81010303544,-0.466335581637,-0.174721988698,-0.304727256434
7000000000.0,-0.178976311083,-0.307158470479,0.805451793147,-0.471143812676,0.805451793147,-0.471143812676,-0.178976311083,-0.307158470479
7100000000.0,-0.183249648687,-0.309522545516,0.800775359402,-0.475886368167,0.800775359402,-0.475886368167,-0.183249648687,-0.309522545516
7200000000.0,-0.187540787196,-0.311819585822,0.796074926747,-0.480563371622,0.796074926747,-0.480563371622,-0.187540787196,-0.311819585822
7300000000.0,-0.191848525902,-0.31404971973,0.791351673782,-0.485174970585,0.791351673782,-0.485174970585,-0.191848525902,-0.31404971973
7400000000.0,-0.19617167816,-0.316213098984,0.7866067647,-0.489721335981,0.7866067647,-0.489721335981,-0.19617167816,-0.316213098984
7500000000.0,-0.200509071828,-0.318309898093,0.781841348856,-0.494202661476,0.781841348856,-0.494202661476,-0.200509071828,-0.318309898093
7600000000.0,-0.20485954967,-0.320340313678,0.777056560349,-0.498619162817,0.777056560349,-0.498619162817,-0.20485954967,-0.320340313678
7700000000.0,-0.209221969739,-0.322304563813,0.772253517646,-0.50297107718,0.772253517646,-0.50297107718,-0.209221969739,-0.322304563813
7800000000.0,-0.213595205734,-0.324202887373,0.767433323218,-0.507258662513,0.767433323218,-0.507258662513,-0.213595205734,-0.324202887373
7900000000.0,-0.21797814733,-0.326035543372,0.762597063209,-0.511482196873,0.762597063209,-0.511482196873,-0.21797814733,-0.326035543372
8000000000.0,-0.222369700481,-0.327802810305,0.757745807129,-0.51564197777,0.757745807129,-0.51564197777,-0.222369700481,-0.327802810305
8100000000.0,-0.226768787704,-0.329504985489,0.75288060757,-0.519738321505,0.75288060757,-0.519738321505,-0.226768787704,-0.329504985489
8200000000.0,-0.231174348335,-0.33114238441,0.748002499946,-0.523771562516,0.748002499946,-0.523771562516,-0.231174348335,-0.33114238441
8300000000.0,-0.235585338761,-0.332715340061,0.743112502257,-0.527742052722,0.743112502257,-0.527742052722,-0.235585338761,-0.332715340061
8400000000.0,-0.240000732632,-0.3342242023,0.738211614878,-0.531650160871,0.738211614878,-0.531650160871,-0.240000732632,-0.3342242023
8500000000.0,-0.244419521048,-0.335669337197,0.733300820366,-0.535496271891,0.733300820366,-0.535496271891,-0.244419521048,-0.335669337197
8600000000.0,-0.248840712724,-0.337051126393,0.728381083294,-0.539280786247,0.728381083294,-0.539280786247,-0.248840712724,-0.337051126393
8700000000.0,-0.253263334135,-0.33836996646,0.723453350105,-0.543004119305,0.723453350105,-0.543004119305,-0.253263334135,-0.33836996646
8800000000.0,-0.257686429637,-0.339626268276,0.718518548981,-0.546666700698,0.718518548981,-0.546666700698,-0.257686429637,-0.339626268276
8900000000.0,-0.262109061575,-0.340820456392,0.713577589745,-0.550268973698,0.713577589745,-0.550268973698,-0.262109061575,-0.340820456392
9000000000.0,-0.26653031036,-0.341952968418,0.708631363767,-0.553811394599,0.708631363767,-0.553811394599,-0.26653031036,-0.341952968418
9100000000.0,-0.270949274537,-0.343024254414,0.703680743906,-0.557294432108,0.703680743906,-0.557294432108,-0.270949274537,-0.343024254414
9200000000.0,-0.275365070831,-0.344034776282,0.698726584451,-0.560718566738,0.698726584451,-0.560718566738,-0.275365070831,-0.344034776282
9300000000.0,-0.279776834171,-0.344985007177,0.6937697211,-0.564084290212,0.6937697211,-0.564084290212,-0.279776834171,-0.344985007177
9400000000.0,-0.284183717705,-0.345875430922,0.688810970942,-0.567392104882,0.688810970942,-0.567392104882,-0.284183717705,-0.345875430922
9500000000.0,-0.288584892791,-0.346706541428,0.683851132459,-0.570642523148,0.683851132459,-0.570642523148,-0.288584892791,-0.346706541428
9600000000.0,-0.292979548976,-0.347478842132,0.678890985548,-0.573836066893,0.678890985548,-0.573836066893,-0.292979548976,-0.347478842132
9700000000.0,-0.297366893959,-0.348192845438,0.673931291556,-0.576973266925,0.673931291556,-0.576973266925,-0.297366893959,-0.348192845438
9800000000.0,-0.301746153536,-0.348849072175,0.668972793325,-0.58005466243,0.668972793325,-0.58005466243,-0.301746153536,-0.348849072175
9900000000.0,-0.306116571538,-0.349448051057,0.664016215259,-0.583080800437,0.664016215259,-0.583080800437,-0.306116571538,-0.349448051057
10000000000.0,-0.310477409747,-0.349990318165,0.659062263402,-0.58605223529,0.659062263402,-0.58605223529,-0.310477409747,-0.349990318165
