freq (GHz),S11_real,S11_imag,S21_real,S21_imag,S12_real,S12_imag,S22_real,S22_imag
100000000.0,-0.0127557643582,-0.111855437644,0.987155515434,-0.111966208923,0.987155515434,-0.111966208923,-0.0127557643582,-0.111855437644
200000000.0,-0.0490511058163,-0.215456551833,0.95085954792,-0.215678101041,0.95085954792,-0.215678101041,-0.0490511058163,-0.215456551833
300000000.0,-0.103885663673,-0.304502954595,0.896024503454,-0.304835292601,0.896024503454,-0.304835292601,-0.103885663673,-0.304502954595
400000000.0,-0.170781512875,-0.375633730005,0.829128230871,-0.37607687123,0.829128230871,-0.37607687123,-0.170781512875,-0.375633730005
500000000.0,-0.243369857509,-0.428363702696,0.756539496888,-0.428917664783,0.756539496888,-0.428917664783,-0.243369857509,-0.428363702696
600000000.0,-0.316475562725,-0.464282630686,0.683433421542,-0.464947434286,0.683433421542,-0.464947434286,-0.316475562725,-0.464282630686
700000000.0,-0.38650848301,-0.486067567072,0.613400141639,-0.486843235684,0.613400141639,-0.486843235684,-0.38650848301,-0.486067567072
800000000.0,-0.451354107259,-0.496683688306,0.548554162669,-0.497570248151,0.548554162669,-0.497570248151,-0.451354107259,-0.496683688306
900000000.0,-0.510035343969,-0.49889327863,0.489872572274,-0.499890758554,0.489872572274,-0.499890758554,-0.510035343969,-0.49889327863
1000000000.0,-0.562342431478,-0.49503095254,0.437565129334,-0.496139383924,0.437565129334,-0.496139383924,-0.562342431478,-0.49503095254
1100000000.0,-0.608525916374,-0.486951904196,0.391381285178,-0.488171320882,0.391381285178,-0.488171320882,-0.608525916374,-0.486951904196
1200000000.0,-0.649076936628,-0.476070132909,0.350829900236,-0.477400571133,0.350829900236,-0.477400571133,-0.649076936628,-0.476070132909
1300000000.0,-0.684585114413,-0.463431658632,0.315321351068,-0.464873156968,0.315321351068,-0.464873156968,-0.684585114413,-0.463431658632
1400000000.0,-0.715654171172,-0.449792723246,0.284251915219,-0.451345322547,0.284251915219,-0.451345322547,-0.715654171172,-0.449792723246
1500000000.0,-0.742856270969,-0.43568949045,0.257049427792,-0.437353233806,0.257049427792,-0.437353233806,-0.742856270969,-0.43568949045
1600000000.0,-0.766710530792,-0.421494938789,0.233194771108,-0.423269871477,0.233194771108,-0.423269871477,-0.766710530792,-0.421494938789
1700000000.0,-0.787675706117,-0.407463036933,0.212229189111,-0.409349206378,0.212229189111,-0.409349206378,-0.787675706117,-0.407463036933
1800000000.0,-0.80615065538,-0.393762011626,0.193753822872,-0.395759467359,0.193753822872,-0.395759467359,-0.80615065538,-0.393762011626
1900000000.0,-0.822478692879,-0.380498919554,0.177425357666,-0.382607713182,0.177425357666,-0.382607713182,-0.822478692879,-0.380498919554
2000000000.0,-0.83695356828,-0.367737568255,0.16295004346,-0.369957753424,0.16295004346,-0.369957753424,-0.83695356828,-0.367737568255
2100000000.0,-0.849825821057,-0.35551147654,0.150077340455,-0.357843108899,0.150077340455,-0.357843108899,-0.849825821057,-0.35551147654
2200000000.0,-0.861308862368,-0.343833192571,0.138593837209,-0.346276329748,0.138593837209,-0.346276329748,-0.861308862368,-0.343833192571
2300000000.0,-0.871584486304,-0.332700963429,0.128317739377,-0.335255665002,0.128317739377,-0.335255665002,-0.871584486304,-0.332700963429
2400000000.0,-0.880807707157,-0.322103490356,0.11909403244,-0.324769817824,0.11909403244,-0.324769817824,-0.880807707157,-0.322103490356
2500000000.0,-0.889110922414,-0.312023305382,0.110790318706,-0.314801322139,0.110790318706,-0.314801322139,-0.889110922414,-0.312023305382
2600000000.0,-0.896607451377,-0.302439157274,0.103293278686,-0.305328928589,0.103293278686,-0.305328928589,-0.896607451377,-0.302439157274
2700000000.0,-0.90339451987,-0.293327686586,0.096505686386,-0.296329279576,0.096505686386,-0.296329279576,-0.90339451987,-0.293327686586
2800000000.0,-0.909555766068,-0.284664591085,0.0903439034749,-0.287778074695,0.0903439034749,-0.287778074695,-0.909555766068,-0.284664591085
2900000000.0,-0.915163339004,-0.276425426292,0.0847357807766,-0.279650871274,0.0847357807766,-0.279650871274,-0.915163339004,-0.276425426292
3000000000.0,-0.92027965417,-0.268586145175,0.0796189026648,-0.271923624069,0.0796189026648,-0.271923624069,-0.92027965417,-0.268586145175
3100000000.0,-0.924958862341,-0.261123451859,0.0749391182384,-0.264573038973,0.0749391182384,-0.264573038973,-0.924958862341,-0.261123451859
3200000000.0,-0.929248079492,-0.254015023187,0.0706493114071,-0.257576794581,0.0706493114071,-0.257576794581,-0.929248079492,-0.254015023187
3300000000.0,-0.933188418091,-0.247239636949,0.0667083695906,-0.250913670416,0.0667083695906,-0.250913670416,-0.933188418091,-0.247239636949
3400000000.0,-0.936815853429,-0.240777234702,0.0630803173953,-0.244563609754,0.0630803173953,-0.244563609754,-0.936815853429,-0.240777234702
3500000000.0,-0.940161952876,-0.234608939286,0.0597335873503,-0.238507737136,0.0597335873503,-0.238507737136,-0.940161952876,-0.234608939286
3600000000.0,-0.943254491192,-0.228717041515,0.056640404602,-0.232728345065,0.056640404602,-0.232728345065,-0.943254491192,-0.228717041515
3700000000.0,-0.946117970949,-0.223084966412,0.0537762664867,-0.227208860238,0.0537762664867,-0.227208860238,-0.946117970949,-0.223084966412
3800000000.0,-0.948774063833,-0.217697226409,0.0511195012314,-0.221933796748,0.0511195012314,-0.221933796748,-0.948774063833,-0.217697226409
3900000000.0,-0.951241985821,-0.212539366801,0.0486508927756,-0.216888701538,0.0486508927756,-0.216888701538,-0.951241985821,-0.212539366801
4000000000.0,-0.953538816981,-0.207597907164,0.0463533609694,-0.21206009582,0.0463533609694,-0.21206009582,-0.953538816981,-0.207597907164
4100000000.0,-0.955679774794,-0.202860281355,0.0442116882533,-0.207435415078,0.0442116882533,-0.207435415078,-0.955679774794,-0.202860281355
4200000000.0,-0.957678448359,-0.198314777864,0.0422122854497,-0.203002949415,0.0422122854497,-0.203002949415,-0.957678448359,-0.198314777864
4300000000.0,-0.959546999614,-0.193950481721,0.0403429905463,-0.198751785467,0.0403429905463,-0.198751785467,-0.959546999614,-0.193950481721
4400000000.0,-0.961296336649,-0.189757218739,0.0385928953789,-0.194671750642,0.0385928953789,-0.194671750642,-0.961296336649,-0.189757218739
4500000000.0,-0.962936263374,-0.185725502544,0.036952195966,-0.190753360153,0.036952195966,-0.190753360153,-0.962936263374,-0.185725502544
4600000000.0,-0.964475609077,-0.181846484668,0.0354120629467,-0.18698776711,0.0354120629467,-0.18698776711,-0.964475609077,-0.181846484668
4700000000.0,-0.965922340864,-0.178111907793,0.0339645291467,-0.183366715765,0.0339645291467,-0.183366715765,-0.965922340864,-0.178111907793
4800000000.0,-0.967283661455,-0.174514062151,0.0326023917759,-0.179882497913,0.0326023917759,-0.179882497913,-0.967283661455,-0.174514062151
4900000000.0,-0.968566094461,-0.17104574501,0.0313191271536,-0.176527912378,0.0313191271536,-0.176527912378,-0.968566094461,-0.17104574501
5000000000.0,-0.969775558907,-0.167700223117,0.0301088161882,-0.173296227458,0.0301088161882,-0.173296227458,-0.969775558907,-0.167700223117
5100000000.0,-0.970917434496,-0.164471197972,0.0289660791091,-0.170181146196,0.0289660791091,-0.170181146196,-0.970917434496,-0.164471197972
5200000000.0,-0.971996618897,-0.161352773738,0.027886018178,-0.167176774295,0.027886018178,-0.167176774295,-0.971996618897,-0.161352773738
5300000000.0,-0.973017578143,-0.158339427649,0.026864167298,-0.164277590521,0.026864167298,-0.164277590521,-0.973017578143,-0.158339427649
5400000000.0,-0.973984391036,-0.155425982723,0.0258964475983,-0.161478419424,0.0258964475983,-0.161478419424,-0.973984391036,-0.155425982723
5500000000.0,-0.974900788381,-0.152607582621,0.0249791282069,-0.158774406189,0.0249791282069,-0.158774406189,-0.974900788381,-0.152607582621
5600000000.0,-0.975770187699,-0.149879668491,0.0241087915379,-0.156160993485,0.0241087915379,-0.156160993485,-0.975770187699,-0.149879668491
5700000000.0,-0.976595723998,-0.147237957632,0.023282302515,-0.153633900131,0.023282302515,-0.153633900131,-0.976595723998,-0.147237957632
5800000000.0,-0.977380277117,-0.144678423851,0.0224967812338,-0.15118910145,0.0224967812338,-0.15118910145,-0.977380277117,-0.144678423851
5900000000.0,-0.978126496047,-0.142197279365,0.0217495786358,-0.148822811171,0.0217495786358,-0.148822811171,-0.978126496047,-0.142197279365
6000000000.0,-0.978836820619,-0.13979095812,0.0210382548226,-0.14653146475,0.0210382548226,-0.14653146475,-0.978836820619,-0.13979095812
6100000000.0,-0.979513500868,-0.137456100416,0.0203605596923,-0.144311704,0.0203605596923,-0.144311704,-0.979513500868,-0.137456100416
6200000000.0,-0.980158614353,-0.135189538737,0.0197144156191,-0.142160362911,0.0197144156191,-0.142160362911,-0.980158614353,-0.135189538737
6300000000.0,-0.980774081671,-0.132988284665,0.0190979019361,-0.140074454574,0.0190979019361,-0.140074454574,-0.980774081671,-0.132988284665
6400000000.0,-0.981361680387,-0.130849516814,0.0185092410115,-0.138051159109,0.0185092410115,-0.138051159109,-0.981361680387,-0.130849516814
6500000000.0,-0.981923057543,-0.128770569673,0.0179467857342,-0.136087812512,0.0179467857342,-0.136087812512,-0.981923057543,-0.128770569673
6600000000.0,-0.982459740923,-0.126748923311,0.0174090082516,-0.134181896358,0.0174090082516,-0.134181896358,-0.982459740923,-0.126748923311
6700000000.0,-0.982973149204,-0.124782193843,0.016894489816,-0.13233102827,0.016894489816,-0.13233102827,-0.982973149204,-0.124782193843
6800000000.0,-0.983464601123,-0.122868124618,0.016401911621,-0.130532953107,0.016401911621,-0.130532953107,-0.983464601123,-0.122868124618
6900000000.0,-0.983935323759,-0.121004578062,0.0159300465171,-0.1287855348,0.0159300465171,-0.1287855348,-0.983935323759,-0.121004578062
7000000000.0,-0.984386460031,-0.119189528111,0.0154777515131,-0.127086748798,0.0154777515131,-0.127086748798,-0.984386460031,-0.119189528111
7100000000.0,-0.984819075497,-0.117421053208,0.01504396098,-0.125434675056,0.01504396098,-0.125434675056,-0.984819075497,-0.117421053208
7200000000.0,-0.98523416452,-0.115697329796,0.0146276804827,-0.123827491532,0.0146276804827,-0.123827491532,-0.98523416452,-0.115697329796
7300000000.0,-0.985632655871,-0.11401662629,0.0142279811754,-0.122263468156,0.0142279811754,-0.122263468156,-0.985632655871,-0.11401662629
7400000000.0,-0.986015417834,-0.112377297462,0.0138439947025,-0.120740961221,0.0138439947025,-0.120740961221,-0.986015417834,-0.112377297462
7500000000.0,-0.986383262844,-0.110777779238,0.0134749085534,-0.119258408173,0.0134749085534,-0.119258408173,-0.986383262844,-0.110777779238
7600000000.0,-0.986736951728,-0.109216583844,0.0131199618266,-0.117814322765,0.0131199618266,-0.117814322765,-0.986736951728,-0.109216583844
7700000000.0,-0.987077197569,-0.107692295296,0.012778441362,-0.116407290542,0.012778441362,-0.116407290542,-0.987077197569,-0.107692295296
7800000000.0,-0.987404669245,-0.106203565202,0.0124496782061,-0.115035964644,0.0124496782061,-0.115035964644,-0.987404669245,-0.106203565202
7900000000.0,-0.987719994661,-0.104749108838,0.0121330443767,-0.113699061882,0.0121330443767,-0.113699061882,-0.987719994661,-0.104749108838
8000000000.0,-0.988023763711,-0.103327701499,0.0118279499004,-0.112395359095,0.0118279499004,-0.112395359095,-0.988023763711,-0.103327701499
8100000000.0,-0.988316531,-0.101938175091,0.011533840095,-0.111123689731,0.011533840095,-0.111123689731,-0.988316531,-0.101938175091
8200000000.0,-0.988598818332,-0.100579414942,0.0112501930754,-0.109882940671,0.0112501930754,-0.109882940671,-0.988598818332,-0.100579414942
8300000000.0,-0.988871117006,-0.0992503568333,0.0109765174625,-0.108672049248,0.0109765174625,-0.108672049248,-0.988871117006,-0.0992503568333
8400000000.0,-0.989133889922,-0.0979499842113,0.0107123502748,-0.107490000471,0.0107123502748,-0.107490000471,-0.989133889922,-0.0979499842113
8500000000.0,-0.989387573522,-0.0966773255887,0.0104572549885,-0.106335824418,0.0104572549885,-0.106335824418,-0.989387573522,-0.0966773255887
8600000000.0,-0.989632579575,-0.0954314521056,0.0102108197495,-0.105208593801,0.0102108197495,-0.105208593801,-0.989632579575,-0.0954314521056
8700000000.0,-0.989869296833,-0.0942114752469,0.00997265572401,-0.104107421681,0.00997265572401,-0.104107421681,-0.989869296833,-0.0942114752469
8800000000.0,-0.990098092545,-0.0930165447018,0.00974239557659,-0.103031459333,0.00974239557659,-0.103031459333,-0.990098092545,-0.0930165447018
8900000000.0,-0.990319313869,-0.0918458463567,0.00951969206334,-0.101979894232,0.00951969206334,-0.101979894232,-0.990319313869,-0.0918458463567
9000000000.0,-0.990533289172,-0.0906986004112,0.0093042167313,-0.100951948174,0.0093042167313,-0.100951948174,-0.990533289172,-0.0906986004112
9100000000.0,-0.990740329231,-0.089574059609,0.00909565871462,-0.0999468755082,0.00909565871462,-0.0999468755082,-0.990740329231,-0.089574059609
9200000000.0,-0.99094072835,-0.0884715075755,0.00889372361947,-0.0989639614695,0.00889372361947,-0.0989639614695,-0.99094072835,-0.0884715075755
9300000000.0,-0.991134765397,-0.087390257255,0.00869813249035,-0.0980025206207,0.00869813249035,-0.0980025206207,-0.991134765397,-0.087390257255
9400000000.0,-0.991322704756,-0.0863296494413,0.00850862085102,-0.097061895381,0.00850862085102,-0.097061895381,-0.991322704756,-0.0863296494413
9500000000.0,-0.991504797223,-0.0852890513932,0.00832493781411,-0.0961414546427,0.00832493781411,-0.0961414546427,-0.991504797223,-0.0852890513932
9600000000.0,-0.99168128083,-0.0842678555324,0.00814684525369,-0.0952405924688,0.00814684525369,-0.0952405924688,-0.99168128083,-0.0842678555324
9700000000.0,-0.991852381617,-0.0832654782156,0.00797411703591,-0.0943587268656,0.00797411703591,-0.0943587268656,-0.991852381617,-0.0832654782156
9800000000.0,-0.992018314348,-0.0822813585774,0.0078065383031,-0.0934952986252,0.0078065383031,-0.0934952986252,-0.992018314348,-0.0822813585774
9900000000.0,-0.992179283173,-0.0813149574385,0.007643904807,-0.0926497702349,0.007643904807,-0.0926497702349,-0.992179283173,-0.0813149574385
10000000000.0,-0.992335482256,-0.0803657562761,0.00748602228756,-0.0918216248471,0.00748602228756,-0.0918216248471,-0.992335482256,-0.0803657562761
