freq (GHz),S11_real,S11_imag,S21_real,S21_imag,S12_real,S12_imag,S22_real,S22_imag
100000000.0,8.70845867085e-06,-4.42960056192e-08,0.999990266223,-2.645568408e-05,0.999990266223,-2.645568408e-05,8.70845867085e-06,-4.42960056371e-08
200000000.0,8.75786569599e-06,-8.87383944e-08,0.999990190789,-5.29117989498e-05,0.999990190789,-5.29117989498e-05,8.75786569599e-06,-8.87383943956e-08
300000000.0,8.79108289831e-06,-1.33408165331e-07,0.999990130843,-7.93685790547e-05,0.999990130843,-7.93685790547e-05,8.79108289809e-06,-1.33408165298e-07
400000000.0,8.81609833736e-06,-1.78357187446e-07,0.999990078395,-0.000105826194932,0.999990078395,-0.000105826194932,8.81609833736e-06,-1.78357187433e-07
500000000.0,8.83598285317e-06,-2.23630935551e-07,0.999990030374,-0.000132284794073,0.999990030374,-0.000132284794073,8.83598285317e-06,-2.23630935543e-07
600000000.0,8.8523017101e-06,-2.69273818804e-07,0.999989985215,-0.000158744512344,0.999989985215,-0.000158744512344,8.8523017101e-06,-2.69273818823e-07
700000000.0,8.86597698635e-06,-3.15314259111e-07,0.999989941994,-0.00018520546213,0.999989941994,-0.00018520546213,8.86597698679e-06,-3.15314259128e-07
800000000.0,8.87760577117e-06,-3.61783165334e-07,0.999989900115,-0.000211667752617,0.999989900115,-0.000211667752617,8.87760577073e-06,-3.61783165348e-07
900000000.0,8.88759996198e-06,-4.08711091125e-07,0.999989859164,-0.000238131488133,0.999989859164,-0.000238131488133,8.88759996176e-06,-4.08711091162e-07
1000000000.0,8.89625670597e-06,-4.561172214e-07,0.999989818846,-0.000264596757959,0.999989818846,-0.000264596757959,8.89625670597e-06,-4.56117221403e-07
1100000000.0,8.9037989166e-06,-5.04025004258e-07,0.999989778936,-0.000291063652565,0.999989778936,-0.000291063652565,8.90379891683e-06,-5.04025004268e-07
1200000000.0,8.91039843776e-06,-5.52455578665e-07,0.999989739262,-0.000317532257494,0.999989739262,-0.000317532257494,8.91039843776e-06,-5.52455578671e-07
1300000000.0,8.91619067311e-06,-6.01422800352e-07,0.999989699688,-0.000344002648744,0.999989699688,-0.000344002648744,8.91619067311e-06,-6.01422800353e-07
1400000000.0,8.92128477159e-06,-6.50943012021e-07,0.999989660106,-0.00037047490282,0.999989660106,-0.00037047490282,8.92128477137e-06,-6.50943012013e-07
1500000000.0,8.92576967404e-06,-7.01030602325e-07,0.999989620425,-0.000396949092531,0.999989620425,-0.000396949092531,8.92576967404e-06,-7.01030602331e-07
1600000000.0,8.92971927846e-06,-7.51697117782e-07,0.999989580572,-0.000423425286288,0.999989580572,-0.000423425286288,8.92971927846e-06,-7.51697117777e-07
1700000000.0,8.93319546336e-06,-8.02953216638e-07,0.999989540484,-0.000449903550221,0.999989540484,-0.000449903550221,8.93319546336e-06,-8.02953216632e-07
1800000000.0,8.93625066589e-06,-8.54807958447e-07,0.999989500109,-0.000476383947603,0.999989500109,-0.000476383947603,8.93625066589e-06,-8.54807958434e-07
1900000000.0,8.9389297282e-06,-9.07268448711e-07,0.999989459401,-0.00050286653861,0.999989459401,-0.00050286653861,8.9389297282e-06,-9.072684487e-07
2000000000.0,8.94127134821e-06,-9.60342681142e-07,0.999989418321,-0.00052935138327,0.999989418321,-0.00052935138327,8.94127134821e-06,-9.60342681143e-07
2100000000.0,8.94330904311e-06,-1.01403545199e-06,0.999989376836,-0.000555838537457,0.999989376836,-0.000555838537457,8.94330904311e-06,-1.01403545198e-06
2200000000.0,8.94507218474e-06,-1.06835120217e-06,0.999989334915,-0.000582328055815,0.999989334915,-0.000582328055815,8.9450721843e-06,-1.06835120216e-06
2300000000.0,8.94658649075e-06,-1.12329383971e-06,0.999989292533,-0.000608819991648,0.999989292533,-0.000608819991648,8.94658649053e-06,-1.12329383971e-06
2400000000.0,8.94787477712e-06,-1.17886558511e-06,0.999989249667,-0.000635314395825,0.999989249667,-0.000635314395825,8.94787477712e-06,-1.17886558509e-06
2500000000.0,8.94895725345e-06,-1.23506777058e-06,0.999989206296,-0.000661811317633,0.999989206296,-0.000661811317633,8.94895725323e-06,-1.23506777058e-06
2600000000.0,8.9498519269e-06,-1.29190110671e-06,0.999989162401,-0.000688310805094,0.999989162401,-0.000688310805094,8.94985192668e-06,-1.29190110671e-06
2700000000.0,8.95057495076e-06,-1.34936559346e-06,0.999989117967,-0.000714812904916,0.999989117967,-0.000714812904916,8.95057495098e-06,-1.34936559346e-06
2800000000.0,8.95114080635e-06,-1.40745945443e-06,0.999989072977,-0.00074131766147,0.999989072977,-0.00074131766147,8.95114080635e-06,-1.40745945443e-06
2900000000.0,8.95156257164e-06,-1.46618180141e-06,0.99998902742,-0.000767825119488,0.99998902742,-0.000767825119488,8.95156257164e-06,-1.46618180141e-06
3000000000.0,8.95185207317e-06,-1.52552943689e-06,0.999988981282,-0.000794335320901,0.999988981282,-0.000794335320901,8.95185207317e-06,-1.52552943689e-06
3100000000.0,8.95202001039e-06,-1.58549898571e-06,0.999988934553,-0.000820848306998,0.999988934553,-0.000820848306998,8.95202001039e-06,-1.58549898571e-06
3200000000.0,8.95207614349e-06,-1.64608653982e-06,0.999988887222,-0.0008473641181,0.999988887222,-0.0008473641181,8.95207614326e-06,-1.64608653982e-06
3300000000.0,8.95202934936e-06,-1.70728748059e-06,0.999988839281,-0.000873882793404,0.999988839281,-0.000873882793404,8.95202934936e-06,-1.70728748059e-06
3400000000.0,8.95188775574e-06,-1.76909656766e-06,0.999988790721,-0.000900404371099,0.999988790721,-0.000900404371099,8.95188775596e-06,-1.76909656766e-06
3500000000.0,8.95165879067e-06,-1.8315072284e-06,0.999988741533,-0.000926928887676,0.999988741533,-0.000926928887676,8.95165879089e-06,-1.8315072284e-06
3600000000.0,8.95134927958e-06,-1.89451297897e-06,0.999988691711,-0.000953456379367,0.999988691711,-0.000953456379367,8.95134927958e-06,-1.89451297896e-06
3700000000.0,8.95096549414e-06,-1.95810698025e-06,0.999988641249,-0.000979986881722,0.999988641249,-0.000979986881722,8.95096549436e-06,-1.95810698025e-06
3800000000.0,8.95051321637e-06,-2.0222815938e-06,0.99998859014,-0.00100652042918,0.99998859014,-0.00100652042918,8.95051321614e-06,-2.0222815938e-06
3900000000.0,8.94999776424e-06,-2.08702784883e-06,0.999988538378,-0.00103305705455,0.999988538378,-0.00103305705455,8.94999776402e-06,-2.08702784883e-06
4000000000.0,8.94942406182e-06,-2.15233695222e-06,0.999988485958,-0.00105959679054,0.999988485958,-0.00105959679054,8.94942406204e-06,-2.15233695222e-06
4100000000.0,8.94879668012e-06,-2.21820011083e-06,0.999988432876,-0.0010861396696,0.999988432876,-0.0010861396696,8.94879668012e-06,-2.21820011083e-06
4200000000.0,8.94811981955e-06,-2.28460684397e-06,0.999988379126,-0.00111268572222,0.999988379126,-0.00111268572222,8.94811981955e-06,-2.28460684397e-06
4300000000.0,8.94739741542e-06,-2.35154702622e-06,0.999988324704,-0.00113923497903,0.999988324704,-0.00113923497903,8.94739741564e-06,-2.35154702622e-06
4400000000.0,8.94663310258e-06,-2.41900964397e-06,0.999988269608,-0.00116578746952,0.999988269608,-0.00116578746952,8.94663310236e-06,-2.41900964397e-06
4500000000.0,8.9458302559e-06,-2.48698377242e-06,0.999988213831,-0.00119234322305,0.999988213831,-0.00119234322305,8.94583025612e-06,-2.48698377242e-06
4600000000.0,8.94499202997e-06,-2.55545679922e-06,0.999988157372,-0.00121890226711,0.999988157372,-0.00121890226711,8.94499202997e-06,-2.55545679922e-06
4700000000.0,8.9441213762e-06,-2.62441726666e-06,0.999988100227,-0.00124546463011,0.999988100227,-0.00124546463011,8.9441213762e-06,-2.62441726666e-06
4800000000.0,8.94322101952e-06,-2.6938526956e-06,0.999988042393,-0.00127203033928,0.999988042393,-0.00127203033928,8.94322101974e-06,-2.6938526956e-06
4900000000.0,8.94229352832e-06,-2.76374949667e-06,0.999987983866,-0.00129859942054,0.999987983866,-0.00129859942054,8.94229352855e-06,-2.76374949667e-06
5000000000.0,8.94134129337e-06,-2.8340945246e-06,0.999987924645,-0.00132517190008,0.999987924645,-0.00132517190008,8.94134129381e-06,-2.8340945246e-06
5100000000.0,8.94036655885e-06,-2.90487396797e-06,0.999987864726,-0.00135174780327,0.999987864726,-0.00135174780327,8.94036655863e-06,-2.90487396796e-06
5200000000.0,8.93937141089e-06,-2.97607321597e-06,0.999987804108,-0.00137832715451,0.999987804108,-0.00137832715451,8.93937141089e-06,-2.97607321597e-06
5300000000.0,8.93835782878e-06,-3.04767814631e-06,0.999987742787,-0.00140490997855,0.999987742787,-0.00140490997855,8.93835782878e-06,-3.04767814632e-06
5400000000.0,8.93732764196e-06,-3.11967370412e-06,0.999987680762,-0.00143149629905,0.999987680762,-0.00143149629905,8.93732764196e-06,-3.11967370412e-06
5500000000.0,8.93628258947e-06,-3.19204474568e-06,0.99998761803,-0.00145808613945,0.99998761803,-0.00145808613945,8.93628258969e-06,-3.19204474568e-06
5600000000.0,8.93522429313e-06,-3.26477515026e-06,0.999987554591,-0.00148467952207,0.999987554591,-0.00148467952207,8.93522429313e-06,-3.26477515025e-06
5700000000.0,8.93415427905e-06,-3.33784950768e-06,0.999987490441,-0.00151127646983,0.999987490441,-0.00151127646983,8.93415427905e-06,-3.33784950768e-06
5800000000.0,8.93307398298e-06,-3.41125120873e-06,0.999987425579,-0.00153787700431,0.999987425579,-0.00153787700431,8.93307398298e-06,-3.41125120873e-06
5900000000.0,8.93198476093e-06,-3.48496399945e-06,0.999987360003,-0.00156448114735,0.999987360003,-0.00156448114735,8.93198476093e-06,-3.48496399945e-06
6000000000.0,8.93088787524e-06,-3.55897056006e-06,0.999987293712,-0.00159108891959,0.999987293712,-0.00159108891959,8.93088787546e-06,-3.55897056006e-06
6100000000.0,8.92978453426e-06,-3.63325392604e-06,0.999987226704,-0.00161770034193,0.999987226704,-0.00161770034193,8.92978453426e-06,-3.63325392604e-06
6200000000.0,8.928675864e-06,-3.70779637793e-06,0.999987158978,-0.00164431543442,0.999987158978,-0.00164431543442,8.928675864e-06,-3.70779637792e-06
6300000000.0,8.92756293047e-06,-3.78258041829e-06,0.999987090532,-0.00167093421722,0.999987090532,-0.00167093421722,8.92756293069e-06,-3.78258041829e-06
6400000000.0,8.92644674266e-06,-3.85758792797e-06,0.999987021365,-0.00169755670977,0.999987021365,-0.00169755670977,8.92644674266e-06,-3.85758792798e-06
6500000000.0,8.92532824626e-06,-3.93280052137e-06,0.999986951476,-0.00172418293118,0.999986951476,-0.00172418293118,8.92532824603e-06,-3.93280052137e-06
6600000000.0,8.92420833942e-06,-4.00819963521e-06,0.999986880864,-0.00175081290026,0.999986880864,-0.00175081290026,8.92420833964e-06,-4.00819963521e-06
6700000000.0,8.92308787215e-06,-4.08376612892e-06,0.999986809527,-0.00177744663518,0.999986809527,-0.00177744663518,8.92308787215e-06,-4.08376612892e-06
6800000000.0,8.9219676469e-06,-4.15948126161e-06,0.999986737464,-0.00180408415444,0.999986737464,-0.00180408415444,8.9219676469e-06,-4.15948126161e-06
6900000000.0,8.92084842108e-06,-4.23532558182e-06,0.999986664674,-0.00183072547572,0.999986664674,-0.00183072547572,8.92084842086e-06,-4.23532558182e-06
7000000000.0,8.91973091166e-06,-4.3112791496e-06,0.999986591156,-0.00185737061617,0.999986591156,-0.00185737061617,8.91973091166e-06,-4.3112791496e-06
7100000000.0,8.9186158021e-06,-4.38732264673e-06,0.99998651691,-0.00188401959348,0.99998651691,-0.00188401959348,8.9186158021e-06,-4.38732264673e-06
7200000000.0,8.91750373588e-06,-4.46343560034e-06,0.999986441933,-0.00191067242411,0.999986441933,-0.00191067242411,8.91750373588e-06,-4.46343560034e-06
7300000000.0,8.91639532741e-06,-4.53959780401e-06,0.999986366226,-0.00193732912475,0.999986366226,-0.00193732912475,8.91639532763e-06,-4.53959780402e-06
7400000000.0,8.91529115288e-06,-4.6157888293e-06,0.999986289787,-0.00196398971176,0.999986289787,-0.00196398971176,8.9152911531e-06,-4.6157888293e-06
7500000000.0,8.91419176741e-06,-4.69198793685e-06,0.999986212616,-0.00199065420117,0.999986212616,-0.00199065420117,8.91419176741e-06,-4.69198793686e-06
7600000000.0,8.91309769102e-06,-4.76817407649e-06,0.999986134711,-0.00201732260863,0.999986134711,-0.00201732260863,8.91309769102e-06,-4.7681740765e-06
7700000000.0,8.91200942044e-06,-4.84432628684e-06,0.999986056072,-0.00204399494982,0.999986056072,-0.00204399494982,8.91200942021e-06,-4.84432628684e-06
7800000000.0,8.91092742861e-06,-4.92042280713e-06,0.999985976699,-0.00207067123957,0.999985976699,-0.00207067123957,8.91092742838e-06,-4.92042280713e-06
7900000000.0,8.90985216939e-06,-4.99644258718e-06,0.999985896589,-0.00209735149337,0.999985896589,-0.00209735149337,8.90985216917e-06,-4.99644258718e-06
8000000000.0,8.90878406601e-06,-5.07236333331e-06,0.999985815743,-0.00212403572544,0.999985815743,-0.00212403572544,8.90878406601e-06,-5.07236333331e-06
8100000000.0,8.90772352702e-06,-5.14816355124e-06,0.999985734161,-0.00215072395072,0.999985734161,-0.00215072395072,8.90772352702e-06,-5.14816355124e-06
8200000000.0,8.90667094278e-06,-5.22382090289e-06,0.99998565184,-0.00217741618328,0.99998565184,-0.00217741618328,8.90667094278e-06,-5.22382090289e-06
8300000000.0,8.9056266841e-06,-5.29931327222e-06,0.999985568781,-0.00220411243737,0.999985568781,-0.00220411243737,8.9056266841e-06,-5.29931327222e-06
8400000000.0,8.90459110647e-06,-5.37461787708e-06,0.999985484983,-0.00223081272654,0.999985484983,-0.00223081272654,8.90459110647e-06,-5.37461787708e-06
8500000000.0,8.90356454564e-06,-5.4497120685e-06,0.999985400445,-0.00225751706442,0.999985400445,-0.00225751706442,8.90356454586e-06,-5.4497120685e-06
8600000000.0,8.90254732844e-06,-5.52457346401e-06,0.999985315167,-0.00228422546488,0.999985315167,-0.00228422546488,8.90254732822e-06,-5.52457346401e-06
8700000000.0,8.90153976107e-06,-5.5991786153e-06,0.999985229148,-0.0023109379407,0.999985229148,-0.0023109379407,8.9015397613e-06,-5.59917861529e-06
8800000000.0,8.90054214242e-06,-5.67350460694e-06,0.999985142388,-0.00233765450514,0.999985142388,-0.00233765450514,8.90054214242e-06,-5.67350460694e-06
8900000000.0,8.89955475669e-06,-5.74752799063e-06,0.999985054885,-0.00236437517091,0.999985054885,-0.00236437517091,8.89955475625e-06,-5.74752799063e-06
9000000000.0,8.89857787523e-06,-5.82122527365e-06,0.99998496664,-0.00239109995064,0.99998496664,-0.00239109995064,8.89857787523e-06,-5.82122527364e-06
9100000000.0,8.89761176248e-06,-5.89457287443e-06,0.999984877652,-0.00241782885684,0.999984877652,-0.00241782885684,8.89761176248e-06,-5.89457287443e-06
9200000000.0,8.89665667092e-06,-5.96754690057e-06,0.99998478792,-0.00244456190169,0.99998478792,-0.00244456190169,8.89665667048e-06,-5.96754690057e-06
9300000000.0,8.89571284124e-06,-6.04012368171e-06,0.999984697445,-0.00247129909756,0.999984697445,-0.00247129909756,8.8957128408e-06,-6.04012368171e-06
9400000000.0,8.89478050836e-06,-6.11227901455e-06,0.999984606224,-0.00249804045627,0.999984606224,-0.00249804045627,8.89478050836e-06,-6.11227901455e-06
9500000000.0,8.89385989877e-06,-6.18398860701e-06,0.999984514259,-0.00252478598952,0.999984514259,-0.00252478598952,8.89385989877e-06,-6.183988607e-06
9600000000.0,8.89295123052e-06,-6.25522827799e-06,0.999984421547,-0.00255153570911,0.999984421547,-0.00255153570911,8.89295123052e-06,-6.25522827799e-06
9700000000.0,8.89205471388e-06,-6.32597322468e-06,0.99998432809,-0.00257828962617,0.99998432809,-0.00257828962617,8.89205471388e-06,-6.32597322468e-06
9800000000.0,8.89117055447e-06,-6.39619919941e-06,0.999984233887,-0.00260504775242,0.999984233887,-0.00260504775242,8.89117055425e-06,-6.39619919941e-06
9900000000.0,8.89029894946e-06,-6.46588108847e-06,0.999984138936,-0.00263181009863,0.999984138936,-0.00263181009863,8.89029894946e-06,-6.46588108848e-06
10000000000.0,8.8894400927e-06,-6.53499439994e-06,0.999984043238,-0.00265857667623,0.999984043238,-0.00265857667623,8.88944009247e-06,-6.53499439995e-06
