freq (GHz),S11_real,S11_imag,S21_real,S21_imag,S12_real,S12_imag,S22_real,S22_imag
100000000.0,-0.000152929989773,-0.0155393981686,0.999618075105,-0.016158404477,0.999618075105,-0.016158404477,-0.000152929989773,-0.0155393981686
200000000.0,-0.000920552219486,-0.0310544584102,0.998848321533,-0.0322925190019,0.998848321533,-0.0322925190019,-0.000920552219486,-0.0310544584102
300000000.0,-0.00218769183956,-0.0465217663093,0.9975790618,-0.0483789582775,0.9975790618,-0.0483789582775,-0.00218769183956,-0.0465217663093
400000000.0,-0.00395054851877,-0.0619180937324,0.9958138989,-0.064394517585,0.9958138989,-0.064394517585,-0.00395054851877,-0.0619180937324
500000000.0,-0.00620395274463,-0.0772205329786,0.99355792648,-0.080316309888,0.99355792648,-0.080316309888,-0.00620395274463,-0.0772205329786
600000000.0,-0.00894135851316,-0.0924066134855,0.990817651835,-0.0961218835056,0.990817651835,-0.0961218835056,-0.00894135851316,-0.0924066134855
700000000.0,-0.0121548779271,-0.107454410365,0.987600939922,-0.111789331132,0.987600939922,-0.111789331132,-0.0121548779271,-0.107454410365
800000000.0,-0.0158353321407,-0.122342645934,0.983916954624,-0.127297391656,0.983916954624,-0.127297391656,-0.0158353321407,-0.122342645934
900000000.0,-0.0199723131586,-0.137050784088,0.979776093487,-0.142625544717,0.979776093487,-0.142625544717,-0.0199723131586,-0.137050784088
1000000000.0,-0.0245542542818,-0.151559117029,0.975189915527,-0.157754097572,0.975189915527,-0.157754097572,-0.0245542542818,-0.151559117029
1100000000.0,-0.0295685077851,-0.165848843843,0.970171062576,-0.172664263766,0.970171062576,-0.172664263766,-0.0295685077851,-0.165848843843
1200000000.0,-0.0350014286364,-0.179902140442,0.96473317499,-0.187338233144,0.96473317499,-0.187338233144,-0.0350014286364,-0.179902140442
1300000000.0,-0.0408384631315,-0.193702220489,0.958890802651,-0.201759232847,0.958890802651,-0.201759232847,-0.0408384631315,-0.193702220489
1400000000.0,-0.0470642413472,-0.207233387066,0.952659312274,-0.215911579015,0.952659312274,-0.215911579015,-0.0470642413472,-0.207233387066
1500000000.0,-0.0536626723295,-0.220481074908,0.946054792061,-0.229780719064,0.946054792061,-0.229780719064,-0.0536626723295,-0.220481074908
1600000000.0,-0.0606170409594,-0.23343188321,0.939093954718,-0.243353264531,0.939093954718,-0.243353264531,-0.0606170409594,-0.23343188321
1700000000.0,-0.0679101054727,-0.24607359909,0.931794039861,-0.256617014557,0.931794039861,-0.256617014557,-0.0679101054727,-0.24607359909
1800000000.0,-0.0755241946588,-0.258395211919,0.924172716751,-0.269560970245,0.924172716751,-0.269560970245,-0.0755241946588,-0.258395211919
1900000000.0,-0.0834413038214,-0.270386918835,0.91624798829,-0.282175340197,0.91624798829,-0.282175340197,-0.0834413038214,-0.270386918835
2000000000.0,-0.0916431886538,-0.282040121841,0.908038097117,-0.294451537624,0.908038097117,-0.294451537624,-0.0916431886538,-0.282040121841
2100000000.0,-0.10011145626,-0.29334741697,0.899561434554,-0.306382169536,0.899561434554,-0.306382169536,-0.10011145626,-0.29334741697
2200000000.0,-0.108827652632,-0.304302576078,0.890836453112,-0.317961018542,0.890836453112,-0.317961018542,-0.108827652632,-0.304302576078
2300000000.0,-0.117773346,-0.314900521856,0.881881583126,-0.329183017879,0.881881583126,-0.329183017879,-0.117773346,-0.314900521856
2400000000.0,-0.126930205529,-0.325137296715,0.872715154042,-0.340044220308,0.872715154042,-0.340044220308,-0.126930205529,-0.325137296715
2500000000.0,-0.136280074974,-0.335010026216,0.863355320751,-0.350541761557,0.863355320751,-0.350541761557,-0.136280074974,-0.335010026216
2600000000.0,-0.145805040951,-0.344516877731,0.853819995317,-0.36067381899,0.853819995317,-0.36067381899,-0.145805040951,-0.344516877731
2700000000.0,-0.155487495602,-0.353657015024,0.844126784294,-0.370439566197,0.844126784294,-0.370439566197,-0.155487495602,-0.353657015024
2800000000.0,-0.1653101935,-0.362430549439,0.834292931824,-0.379839124192,0.834292931824,-0.379839124192,-0.1653101935,-0.362430549439
2900000000.0,-0.175256302717,-0.370838488355,0.82433526856,-0.388873509876,0.82433526856,-0.388873509876,-0.175256302717,-0.370838488355
3000000000.0,-0.185309450068,-0.378882681564,0.81427016642,-0.397544582419,0.81427016642,-0.397544582419,-0.185309450068,-0.378882681564
3100000000.0,-0.195453760577,-0.386565766158,0.804113499115,-0.405854988162,0.804113499115,-0.405854988162,-0.195453760577,-0.386565766158
3200000000.0,-0.205673891311,-0.39389111053,0.793880608316,-0.413808104614,0.793880608316,-0.413808104614,-0.205673891311,-0.39389111053
3300000000.0,-0.215955059737,-0.400862757983,0.783586275293,-0.421407984077,0.783586275293,-0.421407984077,-0.215955059737,-0.400862757983
3400000000.0,-0.226283066828,-0.407485370473,0.773244697802,-0.428659297387,0.773244697802,-0.428659297387,-0.226283066828,-0.407485370473
3500000000.0,-0.236644315175,-0.413764172884,0.762869471981,-0.435567278202,0.762869471981,-0.435567278202,-0.236644315175,-0.413764172884
3600000000.0,-0.247025822373,-0.419704898271,0.752473578955,-0.44213766824,0.752473578955,-0.44213766824,-0.247025822373,-0.419704898271
3700000000.0,-0.257415229997,-0.425313734372,0.742069375861,-0.448376663808,0.742069375861,-0.448376663808,-0.257415229997,-0.425313734372
3800000000.0,-0.267800808475,-0.430597271717,0.731668590972,-0.454290863908,0.731668590972,-0.454290863908,-0.267800808475,-0.430597271717
3900000000.0,-0.278171458201,-0.435562453576,0.721282322588,-0.45988722019,0.721282322588,-0.45988722019,-0.278171458201,-0.435562453576
4000000000.0,-0.288516707196,-0.440216527942,0.710921041368,-0.465172988944,0.710921041368,-0.465172988944,-0.288516707196,-0.440216527942
4100000000.0,-0.298826705672,-0.444567001736,0.70059459577,-0.4701556853,0.70059459577,-0.4701556853,-0.298826705672,-0.444567001736
4200000000.0,-0.30909221781,-0.448621597339,0.69031222027,-0.474843039776,0.69031222027,-0.474843039776,-0.30909221781,-0.448621597339
4300000000.0,-0.319304611075,-0.452388211563,0.680082546045,-0.479242957244,0.680082546045,-0.479242957244,-0.319304611075,-0.452388211563
4400000000.0,-0.329455843384,-0.455874877105,0.669913613808,-0.48336347839,0.669913613808,-0.48336347839,-0.329455843384,-0.455874877105
4500000000.0,-0.339538448404,-0.459089726522,0.659812888508,-0.487212743693,0.659812888508,-0.487212743693,-0.339538448404,-0.459089726522
4600000000.0,-0.349545519276,-0.462040958726,0.649787275605,-0.490798959921,0.649787275605,-0.490798959921,-0.349545519276,-0.462040958726
4700000000.0,-0.359470691018,-0.464736807981,0.639843138665,-0.494130369137,0.639843138665,-0.494130369137,-0.359470691018,-0.464736807981
4800000000.0,-0.369308121862,-0.467185515366,0.629986318028,-0.497215220159,0.629986318028,-0.497215220159,-0.369308121862,-0.467185515366
4900000000.0,-0.379052473738,-0.469395302644,0.620222150318,-0.500061742436,0.620222150318,-0.500061742436,-0.379052473738,-0.469395302644
5000000000.0,-0.388698892126,-0.471374348461,0.610555488593,-0.502678122246,0.610555488593,-0.502678122246,-0.388698892126,-0.471374348461
5100000000.0,-0.398242985469,-0.473130766808,0.600990722932,-0.505072481165,0.600990722932,-0.505072481165,-0.398242985469,-0.473130766808
5200000000.0,-0.407680804308,-0.474672587634,0.5915318013,-0.507252856681,0.5915318013,-0.507252856681,-0.407680804308,-0.474672587634
5300000000.0,-0.417008820301,-0.47600773953,0.582182250527,-0.509227184877,0.582182250527,-0.509227184877,-0.417008820301,-0.47600773953
5400000000.0,-0.42622390527,-0.477144034363,0.572945197264,-0.511003285076,0.572945197264,-0.511003285076,-0.42622390527,-0.477144034363
5500000000.0,-0.435323310388,-0.478089153767,0.56382338879,-0.512588846327,0.56382338879,-0.512588846327,-0.435323310388,-0.478089153767
5600000000.0,-0.444304645623,-0.478850637373,0.554819213576,-0.513991415639,0.554819213576,-0.513991415639,-0.444304645623,-0.478850637373
5700000000.0,-0.45316585952,-0.479435872662,0.545934721495,-0.515218387838,0.545934721495,-0.515218387838,-0.45316585952,-0.479435872662
5800000000.0,-0.461905219416,-0.479852086346,0.537171643613,-0.51627699695,0.537171643613,-0.51627699695,-0.461905219416,-0.479852086346
5900000000.0,-0.470521292139,-0.480106337155,0.528531411483,-0.51717430899,0.528531411483,-0.51717430899,-0.470521292139,-0.480106337155
6000000000.0,-0.479012925257,-0.480205509935,0.520015175904,-0.517917216058,0.520015175904,-0.517917216058,-0.479012925257,-0.480205509935
6100000000.0,-0.48737922892,-0.480156310938,0.511623825073,-0.51851243164,0.511623825073,-0.51851243164,-0.48737922892,-0.480156310938
6200000000.0,-0.495619558324,-0.479965264228,0.50335800212,-0.518966487006,0.50335800212,-0.518966487006,-0.495619558324,-0.479965264228
6300000000.0,-0.503733496837,-0.479638709079,0.495218121988,-0.519285728618,0.495218121988,-0.519285728618,-0.503733496837,-0.479638709079
6400000000.0,-0.511720839792,-0.479182798302,0.487204387634,-0.519476316454,0.487204387634,-0.519476316454,-0.511720839792,-0.479182798302
6500000000.0,-0.519581578968,-0.478603497393,0.479316805551,-0.519544223159,0.479316805551,-0.519544223159,-0.519581578968,-0.478603497393
6600000000.0,-0.527315887766,-0.477906584431,0.471555200591,-0.519495233947,0.471555200591,-0.519495233947,-0.527315887766,-0.477906584431
6700000000.0,-0.534924107072,-0.477097650643,0.4639192301,-0.519334947164,0.4639192301,-0.519334947164,-0.534924107072,-0.477097650643
6800000000.0,-0.542406731818,-0.476182101572,0.45640839736,-0.519068775459,0.45640839736,-0.519068775459,-0.542406731818,-0.476182101572
6900000000.0,-0.549764398218,-0.475165158767,0.449022064351,-0.51870194748,0.449022064351,-0.51870194748,-0.549764398218,-0.475165158767
7000000000.0,-0.556997871679,-0.474051861945,0.44175946384,-0.518239510029,0.44175946384,-0.518239510029,-0.556997871679,-0.474051861945
7100000000.0,-0.56410803537,-0.472847071561,0.434619710811,-0.517686330642,0.434619710811,-0.517686330642,-0.56410803537,-0.472847071561
7200000000.0,-0.571095879433,-0.471555471726,0.427601813257,-0.517047100504,0.427601813257,-0.517047100504,-0.571095879433,-0.471555471726
7300000000.0,-0.577962490812,-0.470181573438,0.420704682348,-0.51632633768,0.420704682348,-0.51632633768,-0.577962490812,-0.470181573438
7400000000.0,-0.584709043691,-0.468729718064,0.413927141991,-0.515528390604,0.413927141991,-0.515528390604,-0.584709043691,-0.468729718064
7500000000.0,-0.591336790518,-0.467204081039,0.407267937812,-0.514657441776,0.407267937812,-0.514657441776,-0.591336790518,-0.467204081039
7600000000.0,-0.59784705358,-0.465608675749,0.400725745577,-0.513717511646,0.400725745577,-0.513717511646,-0.59784705358,-0.465608675749
7700000000.0,-0.604241217123,-0.463947357554,0.394299179067,-0.512712462636,0.394299179067,-0.512712462636,-0.604241217123,-0.463947357554
7800000000.0,-0.610520719992,-0.462223827916,0.387986797448,-0.511646003279,0.387986797448,-0.511646003279,-0.610520719992,-0.462223827916
7900000000.0,-0.616687048758,-0.460441638625,0.381787112139,-0.510521692433,0.381787112139,-0.510521692433,-0.616687048758,-0.460441638625
8000000000.0,-0.622741731313,-0.458604196069,0.375698593212,-0.509342943563,0.375698593212,-0.509342943563,-0.622741731313,-0.458604196069
8100000000.0,-0.628686330924,-0.456714765546,0.369719675345,-0.508113029049,0.369719675345,-0.508113029049,-0.628686330924,-0.456714765546
8200000000.0,-0.6345224407,-0.454776475594,0.363848763353,-0.506835084517,0.363848763353,-0.506835084517,-0.6345224407,-0.454776475594
8300000000.0,-0.640251678471,-0.452792322307,0.358084237307,-0.505512113159,0.358084237307,-0.505512113159,-0.640251678471,-0.452792322307
8400000000.0,-0.645875682041,-0.450765173639,0.352424457281,-0.504146990038,0.352424457281,-0.504146990038,-0.645875682041,-0.450765173639
8500000000.0,-0.651396104809,-0.448697773674,0.346867767732,-0.502742466355,0.346867767732,-0.502742466355,-0.651396104809,-0.448697773674
8600000000.0,-0.65681461173,-0.446592746851,0.341412501539,-0.501301173678,0.341412501539,-0.501301173678,-0.65681461173,-0.446592746851
8700000000.0,-0.662132875587,-0.444452602122,0.33605698373,-0.499825628104,0.33605698373,-0.499825628104,-0.662132875587,-0.444452602122
8800000000.0,-0.66735257358,-0.442279737062,0.330799534892,-0.498318234364,0.330799534892,-0.498318234364,-0.66735257358,-0.442279737062
8900000000.0,-0.672475384185,-0.440076441888,0.325638474313,-0.496781289847,0.325638474313,-0.496781289847,-0.672475384185,-0.440076441888
9000000000.0,-0.677502984292,-0.43784490341,0.320572122846,-0.495216988551,0.320572122846,-0.495216988551,-0.677502984292,-0.43784490341
9100000000.0,-0.682437046579,-0.435587208887,0.315598805528,-0.493627424942,0.315598805528,-0.493627424942,-0.682437046579,-0.435587208887
9200000000.0,-0.687279237134,-0.433305349801,0.310716853966,-0.492014597724,0.310716853966,-0.492014597724,-0.687279237134,-0.433305349801
9300000000.0,-0.692031213283,-0.43100122553,0.305924608502,-0.490380413519,0.305924608502,-0.490380413519,-0.692031213283,-0.43100122553
9400000000.0,-0.69669462163,-0.428676646932,0.301220420178,-0.488726690445,0.301220420178,-0.488726690445,-0.69669462163,-0.428676646932
9500000000.0,-0.701271096286,-0.426333339818,0.296602652503,-0.487055161601,0.296602652503,-0.487055161601,-0.701271096286,-0.426333339818
9600000000.0,-0.705762257274,-0.423972948342,0.292069683051,-0.485367478442,0.292069683051,-0.485367478442,-0.705762257274,-0.423972948342
9700000000.0,-0.710169709098,-0.421597038273,0.287619904887,-0.483665214067,0.287619904887,-0.483665214067,-0.710169709098,-0.421597038273
9800000000.0,-0.714495039471,-0.419207100176,0.283251727845,-0.481949866393,0.283251727845,-0.481949866393,-0.714495039471,-0.419207100176
9900000000.0,-0.718739818179,-0.41680455249,0.278963579658,-0.480222861235,0.278963579658,-0.480222861235,-0.718739818179,-0.41680455249
10000000000.0,-0.722905596083,-0.414390744504,0.274753906962,-0.478485555283,0.274753906962,-0.478485555283,-0.722905596083,-0.414390744504
