freq (GHz),S11_real,S11_imag,S21_real,S21_imag,S12_real,S12_imag,S22_real,S22_imag
100000000.0,0.0493734944783,0.00200383440158,0.950624518896,-0.0027623303886,0.950624518896,-0.0027623303886,0.0493734944783,0.00200383440158
200000000.0,0.0496992199207,0.00400448311846,0.950297221413,-0.00552147632804,0.950297221413,-0.00552147632804,0.0496992199207,0.00400448311846
300000000.0,0.0499522456877,0.00600313395582,0.950042038064,-0.00827862722201,0.950042038064,-0.00827862722201,0.0499522456877,0.00600313395582
400000000.0,0.0501736466074,0.00800014796667,0.949817893923,-0.0110341455532,0.949817893923,-0.0110341455532,0.0501736466074,0.00800014796667
500000000.0,0.050379283205,0.009995693754,0.949608928382,-0.0137882012701,0.949608928382,-0.0137882012701,0.050379283205,0.009995693754
600000000.0,0.050577263201,0.0119898546554,0.949407033643,-0.0165408790015,0.949407033643,-0.0165408790015,0.050577263201,0.0119898546554
700000000.0,0.0507723859084,0.0139826672494,0.949207410317,-0.019292216578,0.949207410317,-0.019292216578,0.0507723859084,0.0139826672494
800000000.0,0.0509677661272,0.0159741392187,0.949006943528,-0.0220422229038,0.949006943528,-0.0220422229038,0.0509677661272,0.0159741392187
900000000.0,0.0511655579676,0.0179642589458,0.948803479092,-0.0247908875588,0.948803479092,-0.0247908875588,0.0511655579676,0.0179642589458
1000000000.0,0.0513673221256,0.0199530011966,0.948595456236,-0.0275381864858,0.948595456236,-0.0275381864858,0.0513673221256,0.0199530011966
1100000000.0,0.0515742302579,0.0219403307299,0.948381703223,-0.0302840856035,0.948381703223,-0.0302840856035,0.0515742302579,0.0219403307299
1200000000.0,0.0517871868864,0.0239262047176,0.948161315453,-0.0330285432289,0.948161315453,-0.0330285432289,0.0517871868864,0.0239262047176
1300000000.0,0.0520069061718,0.0259105744348,0.94793357868,-0.0357715117689,0.94793357868,-0.0357715117689,0.0520069061718,0.0259105744348
1400000000.0,0.0522339624264,0.0278933864823,0.947697918505,-0.0385129389447,0.947697918505,-0.0385129389447,0.0522339624264,0.0278933864823
1500000000.0,0.0524688245693,0.0298745836957,0.947453865922,-0.0412527687018,0.947453865922,-0.0412527687018,0.0524688245693,0.0298745836957
1600000000.0,0.0527118803487,0.0318541058378,0.947201033088,-0.0439909419035,0.947201033088,-0.0439909419035,0.0527118803487,0.0318541058378
1700000000.0,0.0529634538153,0.033831890137,0.946939095857,-0.0467273968702,0.946939095857,-0.0467273968702,0.0529634538153,0.033831890137
1800000000.0,0.0532238182096,0.0358078717135,0.946667780889,-0.0494620698059,0.946667780889,-0.0494620698059,0.0532238182096,0.0358078717135
1900000000.0,0.0534932056521,0.0377819839212,0.946386855962,-0.0521948951416,0.946386855962,-0.0521948951416,0.0534932056521,0.0377819839212
2000000000.0,0.0537718145547,0.0397541586279,0.946096122556,-0.0549258058147,0.946096122556,-0.0549258058147,0.0537718145547,0.0397541586279
2100000000.0,0.054059815375,0.0417243264447,0.945795410105,-0.0576547335004,0.945795410105,-0.0576547335004,0.054059815375,0.0417243264447
2200000000.0,0.0543573551452,0.0436924169192,0.945484571461,-0.060381608804,0.945484571461,-0.060381608804,0.0543573551452,0.0436924169192
2300000000.0,0.0546645610789,0.0456583586977,0.945163479295,-0.0631063614242,0.945163479295,-0.0631063614242,0.0546645610789,0.0456583586977
2400000000.0,0.0549815434761,0.0476220796631,0.944832023184,-0.0658289202911,0.944832023184,-0.0658289202911,0.0549815434761,0.0476220796631
2500000000.0,0.0553083980859,0.049583507054,0.944490107255,-0.0685492136855,0.944490107255,-0.0685492136855,0.0553083980859,0.049583507054
2600000000.0,0.0556452080452,0.0515425675671,0.944137648242,-0.0712671693418,0.944137648242,-0.0712671693418,0.0556452080452,0.0515425675671
2700000000.0,0.0559920454838,0.0534991874474,0.943774573881,-0.0739827145382,0.943774573881,-0.0739827145382,0.0559920454838,0.0534991874474
2800000000.0,0.0563489728625,0.0554532925666,0.943400821576,-0.0766957761756,0.943400821576,-0.0766957761756,0.0563489728625,0.0554532925666
2900000000.0,0.0567160440975,0.0574048084931,0.94301633727,-0.0794062808475,0.94301633727,-0.0794062808475,0.0567160440975,0.0574048084931
3000000000.0,0.0570933055104,0.0593536605539,0.942621074495,-0.0821141549021,0.942621074495,-0.0821141549021,0.0570933055104,0.0593536605539
3100000000.0,0.057480796637,0.06129977389,0.942214993569,-0.0848193244981,0.942214993569,-0.0848193244981,0.057480796637,0.06129977389
3200000000.0,0.0578785509185,0.0632430735066,0.941798060897,-0.087521715655,0.941798060897,-0.087521715655,0.0578785509185,0.0632430735066
3300000000.0,0.0582865962967,0.0651834843182,0.94137024838,-0.0902212542981,0.94137024838,-0.0902212542981,0.0582865962967,0.0651834843182
3400000000.0,0.058704955728,0.0671209311896,0.940931532903,-0.0929178662999,0.940931532903,-0.0929178662999,0.058704955728,0.0671209311896
3500000000.0,0.0591336476303,0.0690553389737,0.940481895882,-0.0956114775177,0.940481895882,-0.0956114775177,0.0591336476303,0.0690553389737
3600000000.0,0.0595726862724,0.0709866325454,0.94002132288,-0.0983020138283,0.94002132288,-0.0983020138283,0.0595726862724,0.0709866325454
3700000000.0,0.0600220821161,0.072914736834,0.939549803264,-0.10098940116,0.939549803264,-0.10098940116,0.0600220821161,0.072914736834
3800000000.0,0.060481842116,0.0748395768518,0.9390673299,-0.10367356552,0.9390673299,-0.10367356552,0.060481842116,0.0748395768518
3900000000.0,0.0609519699852,0.0767610777219,0.938573898897,-0.106354433026,0.938573898897,-0.106354433026,0.0609519699852,0.0767610777219
4000000000.0,0.0614324664305,0.078679164703,0.938069509363,-0.109031929926,0.938069509363,-0.109031929926,0.0614324664305,0.078679164703
4100000000.0,0.0619233293619,0.0805937632134,0.937554163199,-0.111705982629,0.937554163199,-0.111705982629,0.0619233293619,0.0805937632134
4200000000.0,0.0624245540789,0.0825047988531,0.937027864912,-0.114376517718,0.937027864912,-0.114376517718,0.0624245540789,0.0825047988531
4300000000.0,0.0629361334385,0.0844121974244,0.93649062145,-0.11704346198,0.93649062145,-0.11704346198,0.0629361334385,0.0844121974244
4400000000.0,0.063458058005,0.0863158849518,0.935942442046,-0.119706742422,0.935942442046,-0.119706742422,0.063458058005,0.0863158849518
4500000000.0,0.0639903161857,0.0882157877004,0.93538333809,-0.122366286286,0.93538333809,-0.122366286286,0.0639903161857,0.0882157877004
4600000000.0,0.0645328943537,0.0901118321933,0.934813322998,-0.125022021073,0.934813322998,-0.125022021073,0.0645328943537,0.0901118321933
4700000000.0,0.0650857769583,0.0920039452285,0.934232412109,-0.127673874556,0.934232412109,-0.127673874556,0.0650857769583,0.0920039452285
4800000000.0,0.0656489466266,0.0938920538947,0.933640622579,-0.130321774795,0.933640622579,-0.130321774795,0.0656489466266,0.0938920538947
4900000000.0,0.066222384255,0.0957760855862,0.93303797329,-0.132965650157,0.93303797329,-0.132965650157,0.066222384255,0.0957760855862
5000000000.0,0.0668060690937,0.0976559680173,0.932424484766,-0.135605429324,0.932424484766,-0.135605429324,0.0668060690937,0.0976559680173
5100000000.0,0.0673999788237,0.0995316292361,0.931800179099,-0.138241041312,0.931800179099,-0.138241041312,0.0673999788237,0.0995316292361
5200000000.0,0.0680040896276,0.101402997638,0.931165079871,-0.14087241548,0.931165079871,-0.14087241548,0.0680040896276,0.101402997638
5300000000.0,0.0686183762549,0.103270001977,0.930519212096,-0.143499481546,0.930519212096,-0.143499481546,0.0686183762549,0.103270001977
5400000000.0,0.0692428120822,0.10513257138,0.929862602157,-0.146122169599,0.929862602157,-0.146122169599,0.0692428120822,0.10513257138
5500000000.0,0.0698773691692,0.106990635357,0.929195277747,-0.148740410109,0.929195277747,-0.148740410109,0.0698773691692,0.106990635357
5600000000.0,0.0705220183105,0.108844123812,0.928517267824,-0.151354133936,0.928517267824,-0.151354133936,0.0705220183105,0.108844123812
5700000000.0,0.0711767290833,0.110692967054,0.927828602555,-0.153963272349,0.927828602555,-0.153963272349,0.0711767290833,0.110692967054
5800000000.0,0.0718414698931,0.112537095808,0.927129313279,-0.156567757026,0.927129313279,-0.156567757026,0.0718414698931,0.112537095808
5900000000.0,0.0725162080149,0.114376441225,0.926419432458,-0.159167520071,0.926419432458,-0.159167520071,0.0725162080149,0.114376441225
6000000000.0,0.0732009096332,0.116210934891,0.925698993642,-0.161762494024,0.925698993642,-0.161762494024,0.0732009096332,0.116210934891
6100000000.0,0.0738955398785,0.118040508837,0.924968031431,-0.164352611864,0.924968031431,-0.164352611864,0.0738955398785,0.118040508837
6200000000.0,0.074600062862,0.119865095547,0.924226581439,-0.166937807025,0.924226581439,-0.166937807025,0.074600062862,0.119865095547
6300000000.0,0.0753144417088,0.121684627967,0.923474680264,-0.169518013401,0.923474680264,-0.169518013401,0.0753144417088,0.121684627967
6400000000.0,0.0760386385882,0.123499039515,0.922712365453,-0.172093165356,0.922712365453,-0.172093165356,0.0760386385882,0.123499039515
6500000000.0,0.0767726147436,0.125308264088,0.921939675478,-0.174663197731,0.921939675478,-0.174663197731,0.0767726147436,0.125308264088
6600000000.0,0.07751633052,0.127112236068,0.921156649704,-0.177228045852,0.921156649704,-0.177228045852,0.07751633052,0.127112236068
6700000000.0,0.0782697453904,0.128910890334,0.920363328363,-0.179787645539,0.920363328363,-0.179787645539,0.0782697453904,0.128910890334
6800000000.0,0.0790328179809,0.130704162264,0.91955975253,-0.182341933113,0.91955975253,-0.182341933113,0.0790328179809,0.130704162264
6900000000.0,0.0798055060953,0.132491987746,0.918745964099,-0.1848908454,0.918745964099,-0.1848908454,0.0798055060953,0.132491987746
7000000000.0,0.0805877667371,0.134274303186,0.917922005761,-0.187434319744,0.917922005761,-0.187434319744,0.0805877667371,0.134274303186
7100000000.0,0.0813795561323,0.13605104551,0.917087920978,-0.189972294009,0.917087920978,-0.189972294009,0.0813795561323,0.13605104551
7200000000.0,0.0821808297503,0.137822152174,0.916243753967,-0.192504706586,0.916243753967,-0.192504706586,0.0821808297503,0.137822152174
7300000000.0,0.0829915423239,0.139587561169,0.915389549675,-0.195031496401,0.915389549675,-0.195031496401,0.0829915423239,0.139587561169
7400000000.0,0.0838116478691,0.141347211028,0.914525353765,-0.19755260292,0.914525353765,-0.19755260292,0.0838116478691,0.141347211028
7500000000.0,0.0846410997041,0.143101040831,0.91365121259,-0.200067966156,0.91365121259,-0.200067966156,0.0846410997041,0.143101040831
7600000000.0,0.085479850467,0.144848990211,0.912767173182,-0.202577526673,0.912767173182,-0.202577526673,0.085479850467,0.144848990211
7700000000.0,0.0863278521338,0.146590999359,0.911873283229,-0.205081225592,0.911873283229,-0.205081225592,0.0863278521338,0.146590999359
7800000000.0,0.0871850560352,0.148327009031,0.910969591062,-0.207579004597,0.910969591062,-0.207579004597,0.0871850560352,0.148327009031
7900000000.0,0.0880514128734,0.15005696055,0.910056145635,-0.210070805941,0.910056145635,-0.210070805941,0.0880514128734,0.15005696055
8000000000.0,0.0889268727379,0.151780795814,0.909132996511,-0.212556572448,0.909132996511,-0.212556572448,0.0889268727379,0.151780795814
8100000000.0,0.0898113851212,0.153498457301,0.908200193847,-0.21503624752,0.908200193847,-0.21503624752,0.0898113851212,0.153498457301
8200000000.0,0.0907048989338,0.155209888069,0.907257788375,-0.217509775143,0.907257788375,-0.217509775143,0.0907048989338,0.155209888069
8300000000.0,0.0916073625196,0.156915031766,0.906305831392,-0.219977099887,0.906305831392,-0.219977099887,0.0916073625196,0.156915031766
8400000000.0,0.0925187236697,0.158613832632,0.905344374745,-0.222438166915,0.905344374745,-0.222438166915,0.0925187236697,0.158613832632
8500000000.0,0.0934389296369,0.160306235502,0.90437347081,-0.224892921984,0.90437347081,-0.224892921984,0.0934389296369,0.160306235502
8600000000.0,0.0943679271492,0.161992185811,0.90339317249,-0.227341311449,0.90339317249,-0.227341311449,0.0943679271492,0.161992185811
8700000000.0,0.0953056624239,0.163671629599,0.90240353319,-0.229783282271,0.90240353319,-0.229783282271,0.0953056624239,0.163671629599
8800000000.0,0.09625208118,0.165344513511,0.90140460681,-0.232218782015,0.90140460681,-0.232218782015,0.09625208118,0.165344513511
8900000000.0,0.097207128652,0.167010784806,0.900396447733,-0.234647758855,0.900396447733,-0.234647758855,0.097207128652,0.167010784806
9000000000.0,0.0981707496022,0.168670391355,0.899379110808,-0.237070161582,0.899379110808,-0.237070161582,0.0981707496022,0.168670391355
9100000000.0,0.0991428883332,0.170323281647,0.898352651339,-0.2394859396,0.898352651339,-0.2394859396,0.0991428883332,0.170323281647
9200000000.0,0.1001234887,0.171969404791,0.897317125074,-0.241895042935,0.897317125074,-0.241895042935,0.1001234887,0.171969404791
9300000000.0,0.101112494124,0.173608710521,0.896272588192,-0.244297422233,0.896272588192,-0.244297422233,0.101112494124,0.173608710521
9400000000.0,0.1021098476,0.175241149196,0.895219097293,-0.246693028767,0.895219097293,-0.246693028767,0.1021098476,0.175241149196
9500000000.0,0.103115491715,0.176866671802,0.89415670938,-0.249081814438,0.89415670938,-0.249081814438,0.103115491715,0.176866671802
9600000000.0,0.104129368653,0.178485229959,0.893085481857,-0.251463731776,0.893085481857,-0.251463731776,0.104129368653,0.178485229959
9700000000.0,0.105151420212,0.180096775919,0.892005472509,-0.253838733946,0.892005472509,-0.253838733946,0.105151420212,0.180096775919
9800000000.0,0.106181587808,0.181701262569,0.890916739496,-0.256206774744,0.890916739496,-0.256206774744,0.106181587808,0.181701262569
9900000000.0,0.107219812497,0.183298643435,0.88981934134,-0.258567808606,0.88981934134,-0.258567808606,0.107219812497,0.183298643435
10000000000.0,0.108266034973,0.184888872682,0.888713336915,-0.260921790606,0.888713336915,-0.260921790606,0.108266034973,0.184888872682
