freq (GHz),S11_real,S11_imag,S21_real,S21_imag,S12_real,S12_imag,S22_real,S22_imag
100000000.0,-0.000371863736692,-0.0221047229739,0.999328999298,-0.0225510362199,0.999328999298,-0.0225510362199,-0.000371863736692,-0.0221047229739
200000000.0,-0.00188617060412,-0.0441409355398,0.997812356534,-0.0450335800431,0.997812356534,-0.0450335800431,-0.00188617060412,-0.0441409355398
300000000.0,-0.00438613706244,-0.0660427958458,0.995310369809,-0.0673818026334,0.995310369809,-0.0673818026334,-0.00438613706244,-0.0660427958458
400000000.0,-0.00785684817562,-0.0877457887839,0.991837696528,-0.0895311996328,0.991837696528,-0.0895311996328,-0.00785684817562,-0.0877457887839
500000000.0,-0.0122779398639,-0.109187339357,0.987414601971,-0.111419205784,0.987414601971,-0.111419205784,-0.0122779398639,-0.109187339357
600000000.0,-0.0176238374008,-0.130307388071,0.982066610639,-0.132985770701,0.982066610639,-0.132985770701,-0.0176238374008,-0.130307388071
700000000.0,-0.0238641040582,-0.151048916596,0.975824129665,-0.154173884705,0.975824129665,-0.154173884705,-0.0238641040582,-0.151048916596
800000000.0,-0.0309638582816,-0.171358414416,0.96872202146,-0.174930045589,0.96872202146,-0.174930045589,-0.0309638582816,-0.171358414416
900000000.0,-0.0388842426921,-0.191186279256,0.960799130188,-0.195204659106,0.960799130188,-0.195204659106,-0.0388842426921,-0.191186279256
1000000000.0,-0.0475829317443,-0.210487146179,0.952097771817,-0.214952368118,0.952097771817,-0.214952368118,-0.0475829317443,-0.210487146179
1100000000.0,-0.0570146655889,-0.229220142402,0.942663198992,-0.234132307442,0.942663198992,-0.234132307442,-0.0570146655889,-0.229220142402
1200000000.0,-0.0671317980804,-0.247349066978,0.932543052269,-0.252708283565,0.932543052269,-0.252708283565,-0.0671317980804,-0.247349066978
1300000000.0,-0.0778848474355,-0.264842496497,0.921786808981,-0.270648880358,0.921786808981,-0.270648880358,-0.0778848474355,-0.264842496497
1400000000.0,-0.0892230388643,-0.281673819719,0.910445240302,-0.287927493731,0.910445240302,-0.287927493731,-0.0892230388643,-0.281673819719
1500000000.0,-0.101094829564,-0.297821205611,0.898569886035,-0.304522299681,0.898569886035,-0.304522299681,-0.101094829564,-0.297821205611
1600000000.0,-0.113448407723,-0.313267510533,0.886212555462,-0.320416161491,0.886212555462,-0.320416161491,-0.113448407723,-0.313267510533
1700000000.0,-0.126232158589,-0.328000131255,0.873424861174,-0.335596482754,0.873424861174,-0.335596482754,-0.126232158589,-0.328000131255
1800000000.0,-0.139395092079,-0.342010811147,0.860257791376,-0.350055013573,0.860257791376,-0.350055013573,-0.139395092079,-0.342010811147
1900000000.0,-0.15288722793,-0.35529540726,0.846761324681,-0.363787617649,0.846761324681,-0.363787617649,-0.15288722793,-0.35529540726
2000000000.0,-0.166659935738,-0.367853626076,0.832984090026,-0.376794008036,0.832984090026,-0.376794008036,-0.166659935738,-0.367853626076
2100000000.0,-0.180666228596,-0.379688735574,0.818973073,-0.389077459214,0.818973073,-0.389077459214,-0.180666228596,-0.379688735574
2200000000.0,-0.194861010217,-0.390807260906,0.804773368691,-0.400644502768,0.804773368691,-0.400644502768,-0.194861010217,-0.390807260906
2300000000.0,-0.209201276462,-0.401218670446,0.790427980141,-0.411504613443,0.790427980141,-0.411504613443,-0.209201276462,-0.401218670446
2400000000.0,-0.223646273061,-0.410935058379,0.775977660603,-0.421669891735,0.775977660603,-0.421669891735,-0.223646273061,-0.410935058379
2500000000.0,-0.238157612026,-0.419970829256,0.761460797117,-0.431154748453,0.761460797117,-0.431154748453,-0.238157612026,-0.419970829256
2600000000.0,-0.252699349779,-0.428342389198,0.746913332372,-0.439975595922,0.746913332372,-0.439975595922,-0.252699349779,-0.428342389198
2700000000.0,-0.267238030385,-0.436067847685,0.732368721459,-0.448150549779,0.732368721459,-0.448150549779,-0.267238030385,-0.436067847685
2800000000.0,-0.281742697536,-0.443166733082,0.717857919882,-0.455699144496,0.717857919882,-0.455699144496,-0.281742697536,-0.443166733082
2900000000.0,-0.296184878998,-0.449659724377,0.703409399105,-0.462642065128,0.703409399105,-0.462642065128,-0.296184878998,-0.449659724377
3000000000.0,-0.31053854727,-0.455568400916,0.689049185886,-0.469000897044,0.689049185886,-0.469000897044,-0.31053854727,-0.455568400916
3100000000.0,-0.324780060072,-0.460915011337,0.674800921784,-0.474797894868,0.674800921784,-0.474797894868,-0.324780060072,-0.460915011337
3200000000.0,-0.338888084142,-0.465722262376,0.660685939361,-0.480055771281,0.660685939361,-0.480055771281,-0.338888084142,-0.465722262376
3300000000.0,-0.352843505584,-0.47001312774,0.646723351828,-0.484797505903,0.646723351828,-0.484797505903,-0.352843505584,-0.47001312774
3400000000.0,-0.366629329772,-0.473810676884,0.632930153136,-0.489046174069,0.632930153136,-0.489046174069,-0.366629329772,-0.473810676884
3500000000.0,-0.380230573524,-0.477137923201,0.619321325807,-0.492824795016,0.619321325807,-0.492824795016,-0.380230573524,-0.477137923201
3600000000.0,-0.39363415197,-0.480017690865,0.605909954056,-0.496156198736,0.605909954056,-0.496156198736,-0.39363415197,-0.480017690865
3700000000.0,-0.406828762256,-0.482472499411,0.592707340087,-0.499062910552,0.592707340087,-0.499062910552,-0.406828762256,-0.482472499411
3800000000.0,-0.419804765938,-0.484524464962,0.5797231217,-0.501567052345,0.5797231217,-0.501567052345,-0.419804765938,-0.484524464962
3900000000.0,-0.432554071638,-0.486195216938,0.566965389633,-0.503690259271,0.566965389633,-0.503690259271,-0.432554071638,-0.486195216938
4000000000.0,-0.445070019288,-0.487505829029,0.554440803313,-0.505453610728,0.554440803313,-0.505453610728,-0.445070019288,-0.487505829029
4100000000.0,-0.457347267056,-0.488476763184,0.542154703934,-0.506877574354,0.542154703934,-0.506877574354,-0.457347267056,-0.488476763184
4200000000.0,-0.469381681821,-0.489127825387,0.530111223975,-0.507981961796,0.530111223975,-0.507981961796,-0.469381681821,-0.489127825387
4300000000.0,-0.481170233878,-0.489478132012,0.518313392503,-0.508785895071,0.518313392503,-0.508785895071,-0.481170233878,-0.489478132012
4400000000.0,-0.492710896386,-0.489546085586,0.506763235714,-0.509307782331,0.506763235714,-0.509307782331,-0.492710896386,-0.489546085586
4500000000.0,-0.504002549916,-0.489349358881,0.495461872391,-0.509565301951,0.495461872391,-0.509565301951,-0.504002549916,-0.489349358881
4600000000.0,-0.515044892347,-0.488904886274,0.484409604006,-0.509575393898,0.484409604006,-0.509575393898,-0.515044892347,-0.488904886274
4700000000.0,-0.525838354214,-0.488228861433,0.473605999369,-0.509354257408,0.473605999369,-0.509354257408,-0.525838354214,-0.488228861433
4800000000.0,-0.536384019559,-0.487336740418,0.46304997378,-0.508917354096,0.46304997378,-0.508917354096,-0.536384019559,-0.487336740418
4900000000.0,-0.54668355224,-0.486243249411,0.452739862715,-0.508279415684,0.452739862715,-0.508279415684,-0.54668355224,-0.486243249411
5000000000.0,-0.556739127595,-0.484962396313,0.442673490171,-0.5074544556,0.442673490171,-0.5074544556,-0.556739127595,-0.484962396313
5100000000.0,-0.566553369302,-0.483507485568,0.43284823179,-0.506455783801,0.43284823179,-0.506455783801,-0.566553369302,-0.483507485568
5200000000.0,-0.57612929127,-0.481891135593,0.423261072984,-0.505296024204,0.423261072984,-0.505296024204,-0.57612929127,-0.481891135593
5300000000.0,-0.585470244317,-0.480125298312,0.413908662245,-0.503987134225,0.413908662245,-0.503987134225,-0.585470244317,-0.480125298312
5400000000.0,-0.59457986743,-0.478221280313,0.404787359891,-0.502540425928,0.404787359891,-0.502540425928,-0.59457986743,-0.478221280313
5500000000.0,-0.603462043333,-0.476189765219,0.395893282495,-0.500966588408,0.395893282495,-0.500966588408,-0.603462043333,-0.476189765219
5600000000.0,-0.612120858126,-0.474040836928,0.387222343246,-0.499275711025,0.387222343246,-0.499275711025,-0.612120858126,-0.474040836928
5700000000.0,-0.620560564733,-0.471784003405,0.378770288505,-0.497477307193,0.378770288505,-0.497477307193,-0.620560564733,-0.471784003405
5800000000.0,-0.628785549898,-0.469428220756,0.370532730797,-0.495580338466,0.370532730797,-0.495580338466,-0.628785549898,-0.469428220756
5900000000.0,-0.636800304497,-0.466981917381,0.362505178515,-0.493593238682,0.362505178515,-0.493593238682,-0.636800304497,-0.466981917381
6000000000.0,-0.644609396896,-0.464453017993,0.354683062549,-0.491523937988,0.354683062549,-0.491523937988,-0.644609396896,-0.464453017993
6100000000.0,-0.652217449142,-0.461848967358,0.3470617601,-0.489379886575,0.3470617601,-0.489379886575,-0.652217449142,-0.461848967358
6200000000.0,-0.659629115756,-0.459176753622,0.339636615888,-0.487168078014,0.339636615888,-0.487168078014,-0.659629115756,-0.459176753622
6300000000.0,-0.666849064912,-0.456442931116,0.332402960968,-0.484895072054,0.332402960968,-0.484895072054,-0.666849064912,-0.456442931116
6400000000.0,-0.673881961801,-0.453653642563,0.325356129372,-0.482567016836,0.325356129372,-0.482567016836,-0.673881961801,-0.453653642563
6500000000.0,-0.680732453995,-0.450814640611,0.31849147274,-0.480189670419,0.31849147274,-0.480189670419,-0.680732453995,-0.450814640611
6600000000.0,-0.687405158629,-0.447931308647,0.31180437314,-0.477768421602,0.31180437314,-0.477768421602,-0.687405158629,-0.447931308647
6700000000.0,-0.693904651234,-0.445008680854,0.305290254235,-0.47530830998,0.305290254235,-0.47530830998,-0.693904651234,-0.445008680854
6800000000.0,-0.700235456069,-0.442051461496,0.298944590948,-0.472814045224,0.298944590948,-0.472814045224,-0.700235456069,-0.442051461496
6900000000.0,-0.706402037815,-0.439064043399,0.292762917773,-0.470290025571,0.292762917773,-0.470290025571,-0.706402037815,-0.439064043399
7000000000.0,-0.712408794484,-0.436050525639,0.286740835862,-0.467740355507,0.286740835862,-0.467740355507,-0.712408794484,-0.436050525639
7100000000.0,-0.718260051438,-0.433014730435,0.280874019007,-0.465168862661,0.280874019007,-0.465168862661,-0.718260051438,-0.433014730435
7200000000.0,-0.723960056393,-0.429960219246,0.275158218636,-0.462579113907,0.275158218636,-0.462579113907,-0.723960056393,-0.429960219246
7300000000.0,-0.729512975311,-0.426890308099,0.269589267918,-0.459974430684,0.269589267918,-0.459974430684,-0.729512975311,-0.426890308099
7400000000.0,-0.734922889093,-0.42380808215,0.264163085078,-0.457357903568,0.264163085078,-0.457357903568,-0.734922889093,-0.42380808215
7500000000.0,-0.740193790969,-0.420716409505,0.258875675997,-0.454732406087,0.258875675997,-0.454732406087,-0.740193790969,-0.420716409505
7600000000.0,-0.745329584528,-0.41761795433,0.253723136189,-0.452100607832,0.253723136189,-0.452100607832,-0.745329584528,-0.41761795433
7700000000.0,-0.750334082297,-0.414515189258,0.248701652216,-0.449464986864,0.248701652216,-0.449464986864,-0.750334082297,-0.414515189258
7800000000.0,-0.755211004826,-0.411410407124,0.243807502611,-0.446827841455,0.243807502611,-0.446827841455,-0.755211004826,-0.411410407124
7900000000.0,-0.759963980195,-0.40830573207,0.239037058361,-0.444191301187,0.239037058361,-0.444191301187,-0.759963980195,-0.40830573207
8000000000.0,-0.764596543916,-0.405203130017,0.234386783013,-0.441557337427,0.234386783013,-0.441557337427,-0.764596543916,-0.405203130017
8100000000.0,-0.769112139162,-0.402104418556,0.229853232442,-0.43892777322,0.229853232442,-0.43892777322,-0.769112139162,-0.402104418556
8200000000.0,-0.77351411729,-0.399011276274,0.225433054327,-0.436304292613,0.225433054327,-0.436304292613,-0.77351411729,-0.399011276274
8300000000.0,-0.777805738615,-0.395925251539,0.221122987375,-0.433688449442,0.221122987375,-0.433688449442,-0.777805738615,-0.395925251539
8400000000.0,-0.781990173409,-0.392847770781,0.216919860331,-0.431081675614,0.216919860331,-0.431081675614,-0.781990173409,-0.392847770781
8500000000.0,-0.786070503072,-0.389780146281,0.212820590794,-0.428485288895,0.212820590794,-0.428485288895,-0.786070503072,-0.389780146281
8600000000.0,-0.790049721477,-0.386723583501,0.208822183882,-0.425900500242,0.208822183882,-0.425900500242,-0.790049721477,-0.386723583501
8700000000.0,-0.793930736437,-0.383679187981,0.204921730761,-0.423328420696,0.204921730761,-0.423328420696,-0.793930736437,-0.383679187981
8800000000.0,-0.797716371286,-0.380647971814,0.20111640706,-0.420770067867,0.20111640706,-0.420770067867,-0.797716371286,-0.380647971814
8900000000.0,-0.801409366555,-0.377630859742,0.197403471206,-0.41822637202,0.197403471206,-0.41822637202,-0.801409366555,-0.377630859742
9000000000.0,-0.805012381712,-0.374628694872,0.193780262671,-0.415698181799,0.193780262671,-0.415698181799,-0.805012381712,-0.374628694872
9100000000.0,-0.808527996968,-0.371642244048,0.190244200176,-0.413186269594,0.190244200176,-0.413186269594,-0.808527996968,-0.371642244048
9200000000.0,-0.811958715117,-0.368672202894,0.186792779844,-0.410691336591,0.186792779844,-0.410691336591,-0.811958715117,-0.368672202894
9300000000.0,-0.815306963418,-0.365719200545,0.183423573321,-0.408214017496,0.183423573321,-0.408214017496,-0.815306963418,-0.365719200545
9400000000.0,-0.818575095486,-0.362783804087,0.180134225887,-0.405754884981,0.180134225887,-0.405754884981,-0.818575095486,-0.362783804087
9500000000.0,-0.8217653932,-0.359866522722,0.176922454542,-0.403314453847,0.176922454542,-0.403314453847,-0.8217653932,-0.359866522722
9600000000.0,-0.824880068609,-0.356967811671,0.173786046104,-0.400893184927,0.173786046104,-0.400893184927,-0.824880068609,-0.356967811671
9700000000.0,-0.827921265841,-0.354088075837,0.170722855302,-0.398491488751,0.170722855302,-0.398491488751,-0.827921265841,-0.354088075837
9800000000.0,-0.830891062986,-0.351227673235,0.167730802887,-0.396109728978,0.167730802887,-0.396109728978,-0.830891062986,-0.351227673235
9900000000.0,-0.833791473979,-0.34838691821,0.164807873754,-0.393748225611,0.164807873754,-0.393748225611,-0.833791473979,-0.34838691821
10000000000.0,-0.836624450447,-0.345566084451,0.161952115091,-0.39140725801,0.161952115091,-0.39140725801,-0.836624450447,-0.345566084451
