freq (GHz),S11_real,S11_imag,S21_real,S21_imag,S12_real,S12_imag,S22_real,S22_imag
100000000.0,0.00893852448815,0.00182470969941,0.991058270121,-0.00319421154376,0.991058270121,-0.00319421154376,0.00893852448815,0.00182470969941
200000000.0,0.00901440800995,0.00364873869486,0.990978299923,-0.00638774673843,0.990978299923,-0.00638774673843,0.00901440800995,0.00364873869486
300000000.0,0.00908634930756,0.00547223891757,0.990900390529,-0.00958076199127,0.990900390529,-0.00958076199127,0.00908634930756,0.00547223891757
400000000.0,0.00916205065597,0.00729520582331,0.990816839518,-0.0127732564276,0.990816839518,-0.0127732564276,0.00916205065597,0.00729520582331
500000000.0,0.00924447789448,0.00911759857048,0.990724680887,-0.015965192471,0.990724680887,-0.015965192471,0.00924447789448,0.00911759857048
600000000.0,0.00933514204118,0.0109393602976,0.990622403434,-0.0191565162616,0.990622403434,-0.0191565162616,0.00933514204118,0.0109393602976
700000000.0,0.00943493371584,0.0127604254026,0.990509116334,-0.0223471650072,0.990509116334,-0.0223471650072,0.00943493371584,0.0127604254026
800000000.0,0.00954442773842,0.0145807229187,0.99038424454,-0.0255370704022,0.99038424454,-0.0255370704022,0.00954442773842,0.0145807229187
900000000.0,0.00966401877586,0.0164001783291,0.990247393135,-0.0287261604703,0.990247393135,-0.0287261604703,0.00966401877586,0.0164001783291
1000000000.0,0.00979399010936,0.0182187146429,0.99009827857,-0.0319143606604,0.99009827857,-0.0319143606604,0.00979399010936,0.0182187146429
1100000000.0,0.009934551867,0.0200362530804,0.989936690424,-0.0351015945463,0.989936690424,-0.0351015945463,0.009934551867,0.0200362530804
1200000000.0,0.0100858638087,0.0218527135338,0.989762468624,-0.0382877842988,0.989762468624,-0.0382877842988,0.0100858638087,0.0218527135338
1300000000.0,0.0102480496632,0.0236680148909,0.989575489109,-0.0414728510179,0.989575489109,-0.0414728510179,0.0102480496632,0.0236680148909
1400000000.0,0.0104212065533,0.0254820752709,0.989375654399,-0.0446567149758,0.989375654399,-0.0446567149758,0.0104212065533,0.0254820752709
1500000000.0,0.0106054114195,0.027294812201,0.98916288718,-0.0478392957989,0.98916288718,-0.0478392957989,0.0106054114195,0.027294812201
1600000000.0,0.0108007255321,0.0291061427524,0.988937125784,-0.0510205126093,0.988937125784,-0.0510205126093,0.0108007255321,0.0291061427524
1700000000.0,0.0110071977435,0.0309159836478,0.988698320942,-0.0542002841352,0.988698320942,-0.0542002841352,0.0110071977435,0.0309159836478
1800000000.0,0.0112248668859,0.0327242513472,0.988446433384,-0.0573785288014,0.988446433384,-0.0573785288014,0.0112248668859,0.0327242513472
1900000000.0,0.0114537635719,0.0345308621184,0.988181432042,-0.0605551648017,0.988181432042,-0.0605551648017,0.0114537635719,0.0345308621184
2000000000.0,0.0116939115719,0.0363357320959,0.987903292665,-0.063730110161,0.987903292665,-0.063730110161,0.0116939115719,0.0363357320959
2100000000.0,0.0119453288824,0.0381387773301,0.987611996761,-0.0669032827866,0.987611996761,-0.0669032827866,0.0119453288824,0.0381387773301
2200000000.0,0.0122080285666,0.0399399138295,0.987307530749,-0.0700746005125,0.987307530749,-0.0700746005125,0.0122080285666,0.0399399138295
2300000000.0,0.0124820194239,0.0417390575982,0.986989885292,-0.073243981138,0.986989885292,-0.073243981138,0.0124820194239,0.0417390575982
2400000000.0,0.0127673065289,0.043536124667,0.986659054758,-0.0764113424616,0.986659054758,-0.0764113424616,0.0127673065289,0.043536124667
2500000000.0,0.0130638916698,0.0453310311229,0.986315036784,-0.0795766023109,0.986315036784,-0.0795766023109,0.0130638916698,0.0453310311229
2600000000.0,0.0133717737086,0.0471236931342,0.985957831911,-0.0827396785692,0.985957831911,-0.0827396785692,0.0133717737086,0.0471236931342
2700000000.0,0.0136909488792,0.0489140269736,0.98558744329,-0.0859004892002,0.98558744329,-0.0859004892002,0.0136909488792,0.0489140269736
2800000000.0,0.014021411036,0.0507019490393,0.985203876433,-0.0890589522698,0.985203876433,-0.0890589522698,0.014021411036,0.0507019490393
2900000000.0,0.0143631518639,0.0524873758745,0.984807139001,-0.0922149859664,0.984807139001,-0.0922149859664,0.0143631518639,0.0524873758745
3000000000.0,0.0147161610548,0.054270224185,0.984397240629,-0.0953685086198,0.984397240629,-0.0953685086198,0.0147161610548,0.054270224185
3100000000.0,0.0150804264593,0.0560504108558,0.983974192775,-0.0985194387184,0.983974192775,-0.0985194387184,0.0150804264593,0.0560504108558
3200000000.0,0.015455934216,0.0578278529671,0.98353800859,-0.101667694926,0.98353800859,-0.101667694926,0.015455934216,0.0578278529671
3300000000.0,0.0158426688637,0.0596024678082,0.983088702806,-0.104813196096,0.983088702806,-0.104813196096,0.0158426688637,0.0596024678082
3400000000.0,0.0162406134382,0.061374172892,0.982626291639,-0.107955861287,0.982626291639,-0.107955861287,0.0162406134382,0.061374172892
3500000000.0,0.0166497495572,0.0631428859677,0.982150792704,-0.111095609778,0.982150792704,-0.111095609778,0.0166497495572,0.0631428859677
3600000000.0,0.0170700574946,0.0649085250337,0.981662224942,-0.114232361075,0.981662224942,-0.114232361075,0.0170700574946,0.0649085250337
3700000000.0,0.0175015162461,0.066671008349,0.981160608554,-0.117366034934,0.981160608554,-0.117366034934,0.0175015162461,0.066671008349
3800000000.0,0.017944103587,0.0684302544453,0.98064596494,-0.120496551363,0.98064596494,-0.120496551363,0.017944103587,0.0684302544453
3900000000.0,0.0183977961243,0.0701861821377,0.980118316654,-0.123623830638,0.980118316654,-0.123623830638,0.0183977961243,0.0701861821377
4000000000.0,0.0188625693425,0.0719387105353,0.979577687351,-0.126747793315,0.979577687351,-0.126747793315,0.0188625693425,0.0719387105353
4100000000.0,0.0193383976456,0.0736877590518,0.97902410175,-0.12986836024,0.97902410175,-0.12986836024,0.0193383976456,0.0736877590518
4200000000.0,0.0198252543945,0.075433247415,0.978457585593,-0.132985452555,0.978457585593,-0.132985452555,0.0198252543945,0.075433247415
4300000000.0,0.0203231119407,0.077175095677,0.977878165616,-0.136098991717,0.977878165616,-0.136098991717,0.0203231119407,0.077175095677
4400000000.0,0.0208319416577,0.0789132242233,0.977285869511,-0.139208899498,0.977285869511,-0.139208899498,0.0208319416577,0.0789132242233
4500000000.0,0.0213517139694,0.0806475537818,0.976680725905,-0.142315098,0.976680725905,-0.142315098,0.0213517139694,0.0806475537818
4600000000.0,0.0218823983757,0.0823780054321,0.976062764329,-0.145417509666,0.976062764329,-0.145417509666,0.0218823983757,0.0823780054321
4700000000.0,0.0224239634769,0.0841045006137,0.975432015196,-0.148516057282,0.975432015196,-0.148516057282,0.0224239634769,0.0841045006137
4800000000.0,0.0229763769959,0.085826961135,0.974788509778,-0.151610663992,0.974788509778,-0.151610663992,0.0229763769959,0.085826961135
4900000000.0,0.0235396057987,0.0875453091812,0.974132280186,-0.154701253304,0.974132280186,-0.154701253304,0.0235396057987,0.0875453091812
5000000000.0,0.0241136159142,0.0892594673224,0.973463359352,-0.157787749099,0.973463359352,-0.157787749099,0.0241136159142,0.0892594673224
5100000000.0,0.0246983725518,0.0909693585219,0.972781781007,-0.160870075639,0.972781781007,-0.160870075639,0.0246983725518,0.0909693585219
5200000000.0,0.0252938401186,0.0926749061432,0.972087579668,-0.163948157573,0.972087579668,-0.163948157573,0.0252938401186,0.0926749061432
5300000000.0,0.0258999822357,0.0943760339584,0.971380790619,-0.167021919948,0.971380790619,-0.167021919948,0.0258999822357,0.0943760339584
5400000000.0,0.0265167617533,0.0960726661552,0.970661449898,-0.170091288216,0.970661449898,-0.170091288216,0.0265167617533,0.0960726661552
5500000000.0,0.0271441407652,0.0977647273441,0.969929594283,-0.173156188239,0.969929594283,-0.173156188239,0.0271441407652,0.0977647273441
5600000000.0,0.0277820806228,0.0994521425657,0.969185261273,-0.176216546299,0.969185261273,-0.176216546299,0.0277820806228,0.0994521425657
5700000000.0,0.0284305419479,0.101134837298,0.968428489082,-0.179272289104,0.968428489082,-0.179272289104,0.0284305419479,0.101134837298
5800000000.0,0.0290894846461,0.102812737461,0.967659316622,-0.182323343793,0.967659316622,-0.182323343793,0.0290894846461,0.102812737461
5900000000.0,0.0297588679184,0.104485769429,0.966877783491,-0.185369637949,0.966877783491,-0.185369637949,0.0297588679184,0.104485769429
6000000000.0,0.0304386502735,0.106153860029,0.966083929963,-0.188411099599,0.966083929963,-0.188411099599,0.0304386502735,0.106153860029
6100000000.0,0.031128789539,0.107816936556,0.965277796974,-0.191447657223,0.965277796974,-0.191447657223,0.031128789539,0.107816936556
6200000000.0,0.0318292428723,0.109474926771,0.964459426113,-0.194479239761,0.964459426113,-0.194479239761,0.0318292428723,0.109474926771
6300000000.0,0.032539966772,0.111127758913,0.963628859612,-0.197505776622,0.963628859612,-0.197505776622,0.032539966772,0.111127758913
6400000000.0,0.0332609170878,0.112775361703,0.962786140332,-0.200527197682,0.962786140332,-0.200527197682,0.0332609170878,0.112775361703
6500000000.0,0.033992049031,0.11441766435,0.961931311756,-0.203543433298,0.961931311756,-0.203543433298,0.033992049031,0.11441766435
6600000000.0,0.0347333171848,0.116054596556,0.961064417978,-0.206554414314,0.961064417978,-0.206554414314,0.0347333171848,0.116054596556
6700000000.0,0.0354846755138,0.117686088525,0.960185503693,-0.209560072058,0.960185503693,-0.209560072058,0.0354846755138,0.117686088525
6800000000.0,0.0362460773738,0.119312070964,0.959294614186,-0.212560338358,0.959294614186,-0.212560338358,0.0362460773738,0.119312070964
6900000000.0,0.0370174755214,0.120932475091,0.958391795326,-0.215555145543,0.958391795326,-0.215555145543,0.0370174755214,0.120932475091
7000000000.0,0.0377988221232,0.122547232639,0.957477093552,-0.218544426446,0.957477093552,-0.218544426446,0.0377988221232,0.122547232639
7100000000.0,0.0385900687653,0.124156275865,0.956550555869,-0.221528114415,0.956550555869,-0.221528114415,0.0385900687653,0.124156275865
7200000000.0,0.0393911664621,0.12575953755,0.955612229834,-0.224506143313,0.955612229834,-0.224506143313,0.0393911664621,0.12575953755
7300000000.0,0.0402020656657,0.127356951007,0.954662163549,-0.227478447527,0.954662163549,-0.227478447527,0.0402020656657,0.127356951007
7400000000.0,0.0410227162743,0.128948450084,0.953700405655,-0.230444961971,0.953700405655,-0.230444961971,0.0410227162743,0.128948450084
7500000000.0,0.0418530676416,0.130533969172,0.952727005318,-0.233405622088,0.952727005318,-0.233405622088,0.0418530676416,0.130533969172
7600000000.0,0.0426930685851,0.132113443206,0.951742012222,-0.236360363863,0.951742012222,-0.236360363863,0.0426930685851,0.132113443206
7700000000.0,0.0435426673953,0.133686807672,0.950745476563,-0.239309123817,0.950745476563,-0.239309123817,0.0435426673953,0.133686807672
7800000000.0,0.0444018118435,0.135253998609,0.949737449039,-0.242251839022,0.949737449039,-0.242251839022,0.0444018118435,0.135253998609
7900000000.0,0.0452704491912,0.136814952617,0.948717980837,-0.245188447095,0.948717980837,-0.245188447095,0.0452704491912,0.136814952617
8000000000.0,0.0461485261983,0.138369606858,0.947687123632,-0.248118886213,0.947687123632,-0.248118886213,0.0461485261983,0.138369606858
8100000000.0,0.0470359891312,0.13991789906,0.946644929574,-0.251043095106,0.946644929574,-0.251043095106,0.0470359891312,0.13991789906
8200000000.0,0.0479327837718,0.141459767524,0.94559145128,-0.253961013072,0.94559145128,-0.253961013072,0.0479327837718,0.141459767524
8300000000.0,0.0488388554256,0.142995151125,0.944526741826,-0.256872579971,0.944526741826,-0.256872579971,0.0488388554256,0.142995151125
8400000000.0,0.0497541489297,0.144523989315,0.943450854739,-0.259777736237,0.943450854739,-0.259777736237,0.0497541489297,0.144523989315
8500000000.0,0.0506786086618,0.146046222133,0.942363843989,-0.262676422876,0.942363843989,-0.262676422876,0.0506786086618,0.146046222133
8600000000.0,0.0516121785479,0.147561790198,0.94126576398,-0.265568581473,0.94126576398,-0.265568581473,0.0516121785479,0.147561790198
8700000000.0,0.0525548020709,0.149070634722,0.940156669541,-0.268454154191,0.940156669541,-0.268454154191,0.0525548020709,0.149070634722
8800000000.0,0.0535064222784,0.15057269751,0.93903661592,-0.271333083782,0.93903661592,-0.271333083782,0.0535064222784,0.15057269751
8900000000.0,0.0544669817912,0.15206792096,0.937905658775,-0.274205313583,0.937905658775,-0.274205313583,0.0544669817912,0.15206792096
9000000000.0,0.0554364228115,0.153556248071,0.936763854163,-0.277070787522,0.936763854163,-0.277070787522,0.0554364228115,0.153556248071
9100000000.0,0.0564146871308,0.155037622443,0.935611258538,-0.279929450122,0.935611258538,-0.279929450122,0.0564146871308,0.155037622443
9200000000.0,0.0574017161381,0.156511988281,0.934447928737,-0.2827812465,0.934447928737,-0.2827812465,0.0574017161381,0.156511988281
9300000000.0,0.058397450828,0.157979290398,0.933273921973,-0.285626122377,0.933273921973,-0.285626122377,0.058397450828,0.157979290398
9400000000.0,0.0594018318089,0.159439474216,0.93208929583,-0.288464024073,0.93208929583,-0.288464024073,0.0594018318089,0.159439474216
9500000000.0,0.0604147993107,0.16089248577,0.930894108254,-0.291294898512,0.930894108254,-0.291294898512,0.0604147993107,0.16089248577
9600000000.0,0.0614362931931,0.162338271711,0.92968841754,-0.29411869323,0.92968841754,-0.29411869323,0.0614362931931,0.162338271711
9700000000.0,0.0624662529537,0.163776779306,0.928472282333,-0.296935356367,0.928472282333,-0.296935356367,0.0624662529537,0.163776779306
9800000000.0,0.0635046177357,0.165207956444,0.927245761611,-0.299744836679,0.927245761611,-0.299744836679,0.0635046177357,0.165207956444
9900000000.0,0.0645513263358,0.166631751633,0.926008914683,-0.302547083534,0.926008914683,-0.302547083534,0.0645513263358,0.166631751633
10000000000.0,0.0656063172127,0.168048114007,0.924761801178,-0.305342046917,0.924761801178,-0.305342046917,0.0656063172127,0.168048114007
