freq (GHz),S11_real,S11_imag,S21_real,S21_imag,S12_real,S12_imag,S22_real,S22_imag
100000000.0,0.0145984809279,0.00172402975539,0.985398681083,-0.00291617265204,0.985398681083,-0.00291617265204,0.0145984809279,0.00172402975539
200000000.0,0.0147084960179,0.00344709541303,0.985285399652,-0.00583138769126,0.985285399652,-0.00583138769126,0.0147084960179,0.00344709541303
300000000.0,0.0148030977955,0.00516949045521,0.985186103035,-0.00874594373028,0.985186103035,-0.00874594373028,0.0148030977955,0.00516949045521
400000000.0,0.0148948213254,0.00689127147043,0.98508825602,-0.0116599015149,0.98508825602,-0.0116599015149,0.0148948213254,0.00689127147043
500000000.0,0.0149884991988,0.00861243998503,0.984987025859,-0.0145732662407,0.984987025859,-0.0145732662407,0.0149884991988,0.00861243998503
600000000.0,0.0150865974805,0.0103329731698,0.984879946316,-0.01748601843,0.984879946316,-0.01748601843,0.0150865974805,0.0103329731698
700000000.0,0.0151905729761,0.0120528348674,0.984765560397,-0.0203981250455,0.984765560397,-0.0203981250455,0.0151905729761,0.0120528348674
800000000.0,0.015301368858,0.013771980707,0.984642924729,-0.0233095446568,0.984642924729,-0.0233095446568,0.015301368858,0.013771980707
900000000.0,0.0154196354532,0.015490360852,0.984511388767,-0.0262202302223,0.984511388767,-0.0262202302223,0.0154196354532,0.015490360852
1000000000.0,0.0155458422113,0.0172079216276,0.984370482826,-0.0291301307405,0.984370482826,-0.0291301307405,0.0155458422113,0.0172079216276
1100000000.0,0.0156803399744,0.0189246065556,0.984219855816,-0.0320391923026,0.984219855816,-0.0320391923026,0.0156803399744,0.0189246065556
1200000000.0,0.0158233980996,0.0206403570483,0.984059238114,-0.0349473587995,0.984059238114,-0.0349473587995,0.0158233980996,0.0206403570483
1300000000.0,0.0159752278246,0.022355112894,0.983888418201,-0.0378545724184,0.983888418201,-0.0378545724184,0.0159752278246,0.022355112894
1400000000.0,0.0161359976329,0.0240688126095,0.983707227296,-0.0407607740028,0.983707227296,-0.0407607740028,0.0161359976329,0.0240688126095
1500000000.0,0.0163058437288,0.0257813937017,0.983515528885,-0.0436659033222,0.983515528885,-0.0436659033222,0.0163058437288,0.0257813937017
1600000000.0,0.0164848773971,0.0274927928685,0.983313211354,-0.046569899278,0.983313211354,-0.046569899278,0.0164848773971,0.0274927928685
1700000000.0,0.0166731903101,0.0292029461549,0.98310018269,-0.0494727000648,0.98310018269,-0.0494727000648,0.0166731903101,0.0292029461549
1800000000.0,0.0168708584389,0.0309117890781,0.982876366564,-0.0523742432994,0.982876366564,-0.0523742432994,0.0168708584389,0.0309117890781
1900000000.0,0.0170779449932,0.0326192567274,0.982641699396,-0.0552744661245,0.982641699396,-0.0552744661245,0.0170779449932,0.0326192567274
2000000000.0,0.0172945026692,0.0343252838471,0.982396128101,-0.0581733052945,0.982396128101,-0.0581733052945,0.0172945026692,0.0343252838471
2100000000.0,0.017520575393,0.036029804905,0.982139608354,-0.0610706972471,0.982139608354,-0.0610706972471,0.017520575393,0.036029804905
2200000000.0,0.0177561996933,0.0377327541502,0.981872103211,-0.0639665781633,0.981872103211,-0.0639665781633,0.0177561996933,0.0377327541502
2300000000.0,0.0180014057933,0.0394340656626,0.981593582017,-0.0668608840189,0.981593582017,-0.0668608840189,0.0180014057933,0.0394340656626
2400000000.0,0.0182562184902,0.0411336733947,0.981304019533,-0.0697535506284,0.981304019533,-0.0697535506284,0.0182562184902,0.0411336733947
2500000000.0,0.0185206578704,0.042831511209,0.981003395215,-0.0726445136842,0.981003395215,-0.0726445136842,0.0185206578704,0.042831511209
2600000000.0,0.018794739896,0.0445275129096,0.980691692628,-0.0755337087898,0.980691692628,-0.0755337087898,0.018794739896,0.0445275129096
2700000000.0,0.0190784768901,0.0462216122715,0.980368898963,-0.0784210714899,0.980368898963,-0.0784210714899,0.0190784768901,0.0462216122715
2800000000.0,0.0193718779421,0.0479137430652,0.980035004633,-0.0813065372974,0.980035004633,-0.0813065372974,0.0193718779421,0.0479137430652
2900000000.0,0.0196749492472,0.0496038390802,0.979690002928,-0.084190041717,0.979690002928,-0.084190041717,0.0196749492472,0.0496038390802
3000000000.0,0.019987694394,0.051291834145,0.979333889733,-0.0870715202672,0.979333889733,-0.0870715202672,0.019987694394,0.051291834145
3100000000.0,0.0203101146095,0.0529776621465,0.978966663282,-0.0899509084999,0.978966663282,-0.0899509084999,0.0203101146095,0.0529776621465
3200000000.0,0.0206422089677,0.0546612570467,0.978588323947,-0.0928281420185,0.978588323947,-0.0928281420185,0.0206422089677,0.0546612570467
3300000000.0,0.0209839745703,0.0563425528988,0.978198874059,-0.0957031564947,0.978198874059,-0.0957031564947,0.0209839745703,0.0563425528988
3400000000.0,0.0213354067021,0.0580214838614,0.977798317754,-0.0985758876839,0.977798317754,-0.0985758876839,0.0213354067021,0.0580214838614
3500000000.0,0.0216964989668,0.0596979842128,0.977386660835,-0.101446271439,0.977386660835,-0.101446271439,0.0216964989668,0.0596979842128
3600000000.0,0.022067243405,0.0613719883631,0.976963910655,-0.104314243726,0.976963910655,-0.104314243726,0.022067243405,0.0613719883631
3700000000.0,0.0224476305983,0.0630434308665,0.976530076013,-0.107179740632,0.976530076013,-0.107179740632,0.0224476305983,0.0630434308665
3800000000.0,0.0228376497602,0.0647122464323,0.976085167064,-0.110042698383,0.976085167064,-0.110042698383,0.0228376497602,0.0647122464323
3900000000.0,0.0232372888175,0.0663783699355,0.975629195236,-0.112903053349,0.975629195236,-0.112903053349,0.0232372888175,0.0663783699355
4000000000.0,0.0236465344822,0.0680417364274,0.97516217316,-0.115760742061,0.97516217316,-0.115760742061,0.0236465344822,0.0680417364274
4100000000.0,0.0240653723151,0.0697022811443,0.974684114603,-0.118615701215,0.974684114603,-0.118615701215,0.0240653723151,0.0697022811443
4200000000.0,0.0244937867834,0.0713599395175,0.974195034416,-0.121467867685,0.974195034416,-0.121467867685,0.0244937867834,0.0713599395175
4300000000.0,0.0249317613125,0.0730146471815,0.973694948477,-0.124317178533,0.973694948477,-0.124317178533,0.0249317613125,0.0730146471815
4400000000.0,0.0253792783321,0.0746663399827,0.973183873649,-0.127163571014,0.973183873649,-0.127163571014,0.0253792783321,0.0746663399827
4500000000.0,0.025836319318,0.0763149539872,0.972661827735,-0.130006982588,0.972661827735,-0.130006982588,0.025836319318,0.0763149539872
4600000000.0,0.0263028648311,0.0779604254889,0.972128829441,-0.132847350928,0.972128829441,-0.132847350928,0.0263028648311,0.0779604254889
4700000000.0,0.026778894551,0.0796026910167,0.971584898341,-0.135684613926,0.971584898341,-0.135684613926,0.026778894551,0.0796026910167
4800000000.0,0.0272643873086,0.0812416873421,0.971030054848,-0.138518709701,0.971030054848,-0.138518709701,0.0272643873086,0.0812416873421
4900000000.0,0.0277593211148,0.0828773514856,0.970464320179,-0.141349576607,0.970464320179,-0.141349576607,0.0277593211148,0.0828773514856
5000000000.0,0.0282636731873,0.0845096207243,0.969887716334,-0.14417715324,0.969887716334,-0.14417715324,0.0282636731873,0.0845096207243
5100000000.0,0.0287774199754,0.0861384325978,0.969300266071,-0.147001378446,0.969300266071,-0.147001378446,0.0287774199754,0.0861384325978
5200000000.0,0.0293005371826,0.0877637249152,0.968701992878,-0.149822191325,0.968701992878,-0.149822191325,0.0293005371826,0.0877637249152
5300000000.0,0.0298329997878,0.0893854357607,0.968092920958,-0.152639531239,0.968092920958,-0.152639531239,0.0298329997878,0.0893854357607
5400000000.0,0.0303747820653,0.0910035035002,0.967473075205,-0.155453337819,0.967473075205,-0.155453337819,0.0303747820653,0.0910035035002
5500000000.0,0.0309258576028,0.0926178667872,0.966842481189,-0.158263550971,0.966842481189,-0.158263550971,0.0309258576028,0.0926178667872
5600000000.0,0.0314861993192,0.0942284645681,0.966201165137,-0.16107011088,0.966201165137,-0.16107011088,0.0314861993192,0.0942284645681
5700000000.0,0.0320557794799,0.0958352360883,0.965549153917,-0.163872958019,0.965549153917,-0.163872958019,0.0320557794799,0.0958352360883
5800000000.0,0.032634569713,0.0974381208976,0.96488647502,-0.166672033153,0.96488647502,-0.166672033153,0.032634569713,0.0974381208976
5900000000.0,0.0332225410229,0.0990370588552,0.964213156554,-0.169467277343,0.964213156554,-0.169467277343,0.0332225410229,0.0990370588552
6000000000.0,0.0338196638046,0.100631990136,0.96352922722,-0.172258631954,0.96352922722,-0.172258631954,0.0338196638046,0.100631990136
6100000000.0,0.0344259078558,0.102222855233,0.962834716306,-0.175046038661,0.962834716306,-0.175046038661,0.0344259078558,0.102222855233
6200000000.0,0.0350412423901,0.103809594967,0.962129653674,-0.177829439451,0.962129653674,-0.177829439451,0.0350412423901,0.103809594967
6300000000.0,0.035665636048,0.105392150487,0.961414069745,-0.18060877663,0.961414069745,-0.18060877663,0.035665636048,0.105392150487
6400000000.0,0.0362990569085,0.106970463276,0.960687995491,-0.183383992827,0.960687995491,-0.183383992827,0.0362990569085,0.106970463276
6500000000.0,0.0369414724999,0.10854447516,0.959951462423,-0.186155031001,0.959951462423,-0.186155031001,0.0369414724999,0.10854447516
6600000000.0,0.0375928498096,0.110114128305,0.959204502581,-0.188921834444,0.959204502581,-0.188921834444,0.0375928498096,0.110114128305
6700000000.0,0.0382531552948,0.111679365227,0.958447148525,-0.191684346785,0.958447148525,-0.191684346785,0.0382531552948,0.111679365227
6800000000.0,0.0389223548916,0.113240128796,0.957679433322,-0.194442511996,0.957679433322,-0.194442511996,0.0389223548916,0.113240128796
6900000000.0,0.0396004140242,0.114796362238,0.956901390541,-0.197196274397,0.956901390541,-0.197196274397,0.0396004140242,0.114796362238
7000000000.0,0.0402872976143,0.116348009141,0.956113054243,-0.199945578657,0.956113054243,-0.199945578657,0.0402872976143,0.116348009141
7100000000.0,0.0409829700895,0.117895013457,0.955314458968,-0.202690369802,0.955314458968,-0.202690369802,0.0409829700895,0.117895013457
7200000000.0,0.0416873953918,0.11943731951,0.954505639735,-0.205430593219,0.954505639735,-0.205430593219,0.0416873953918,0.11943731951
7300000000.0,0.042400536986,0.120974871997,0.953686632025,-0.208166194656,0.953686632025,-0.208166194656,0.042400536986,0.120974871997
7400000000.0,0.0431223578676,0.12250761599,0.952857471779,-0.21089712023,0.952857471779,-0.21089712023,0.0431223578676,0.12250761599
7500000000.0,0.0438528205706,0.124035496945,0.952018195386,-0.213623316431,0.952018195386,-0.213623316431,0.0438528205706,0.124035496945
7600000000.0,0.0445918871756,0.125558460702,0.95116883968,-0.216344730122,0.95116883968,-0.216344730122,0.0445918871756,0.125558460702
7700000000.0,0.0453395193169,0.127076453489,0.950309441928,-0.219061308546,0.950309441928,-0.219061308546,0.0453395193169,0.127076453489
7800000000.0,0.0460956781898,0.128589421925,0.949440039825,-0.221772999331,0.949440039825,-0.221772999331,0.0460956781898,0.128589421925
7900000000.0,0.0468603245584,0.130097313027,0.948560671486,-0.224479750488,0.948560671486,-0.224479750488,0.0468603245584,0.130097313027
8000000000.0,0.0476334187623,0.131600074209,0.94767137544,-0.22718151042,0.94767137544,-0.22718151042,0.0476334187623,0.131600074209
8100000000.0,0.0484149207238,0.133097653288,0.94677219062,-0.229878227922,0.94677219062,-0.229878227922,0.0484149207238,0.133097653288
8200000000.0,0.0492047899546,0.134589998484,0.945863156361,-0.232569852186,0.945863156361,-0.232569852186,0.0492047899546,0.134589998484
8300000000.0,0.050002985563,0.136077058428,0.944944312388,-0.235256332805,0.944944312388,-0.235256332805,0.050002985563,0.136077058428
8400000000.0,0.0508094662603,0.137558782162,0.944015698813,-0.237937619771,0.944015698813,-0.237937619771,0.0508094662603,0.137558782162
8500000000.0,0.0516241903675,0.13903511914,0.943077356127,-0.240613663488,0.943077356127,-0.240613663488,0.0516241903675,0.13903511914
8600000000.0,0.0524471158221,0.140506019238,0.942129325194,-0.243284414762,0.942129325194,-0.243284414762,0.0524471158221,0.140506019238
8700000000.0,0.0532782001843,0.141971432747,0.941171647242,-0.245949824816,0.941171647242,-0.245949824816,0.0532782001843,0.141971432747
8800000000.0,0.0541174006438,0.143431310384,0.940204363861,-0.248609845286,0.940204363861,-0.248609845286,0.0541174006438,0.143431310384
8900000000.0,0.0549646740256,0.144885603291,0.939227516993,-0.251264428224,0.939227516993,-0.251264428224,0.0549646740256,0.144885603291
9000000000.0,0.055819976797,0.146334263037,0.938241148927,-0.253913526104,0.938241148927,-0.253913526104,0.055819976797,0.146334263037
9100000000.0,0.0566832650735,0.147777241623,0.937245302292,-0.256557091822,0.937245302292,-0.256557091822,0.0566832650735,0.147777241623
9200000000.0,0.0575544946249,0.149214491483,0.936240020053,-0.259195078699,0.936240020053,-0.259195078699,0.0575544946249,0.149214491483
9300000000.0,0.0584336208818,0.150645965486,0.935225345502,-0.261827440482,0.935225345502,-0.261827440482,0.0584336208818,0.150645965486
9400000000.0,0.0593205989414,0.152071616938,0.934201322255,-0.264454131352,0.934201322255,-0.264454131352,0.0593205989414,0.152071616938
9500000000.0,0.0602153835739,0.153491399587,0.933167994242,-0.267075105918,0.933167994242,-0.267075105918,0.0602153835739,0.153491399587
9600000000.0,0.0611179292282,0.154905267622,0.932125405704,-0.269690319227,0.932125405704,-0.269690319227,0.0611179292282,0.154905267622
9700000000.0,0.0620281900384,0.156313175675,0.931073601186,-0.272299726759,0.931073601186,-0.272299726759,0.0620281900384,0.156313175675
9800000000.0,0.062946119829,0.157715078826,0.930012625531,-0.274903284436,0.930012625531,-0.274903284436,0.062946119829,0.157715078826
9900000000.0,0.0638716721217,0.159110932604,0.928942523876,-0.27750094862,0.928942523876,-0.27750094862,0.0638716721217,0.159110932604
10000000000.0,0.0648048001407,0.160500692986,0.927863341641,-0.280092676113,0.927863341641,-0.280092676113,0.0648048001407,0.160500692986
