freq (GHz),S11_real,S11_imag,S21_real,S21_imag,S12_real,S12_imag,S22_real,S22_imag
100000000.0,-0.00265860244315,-0.051035086079,0.997316390274,-0.051191538348,0.997316390274,-0.051191538348,-0.00265860244315,-0.051035086079
200000000.0,-0.0104828022428,-0.101252313786,0.989491982838,-0.101565316826,0.989491982838,-0.101565316826,-0.0104828022428,-0.101252313786
300000000.0,-0.0232151837374,-0.149892706244,0.976759412016,-0.150362407456,0.976759412016,-0.150362407456,-0.0232151837374,-0.149892706244
400000000.0,-0.0404708460052,-0.196278455599,0.959503557152,-0.196905037928,0.959503557152,-0.196905037928,-0.0404708460052,-0.196278455599
500000000.0,-0.061753855025,-0.239840704664,0.938220343926,-0.240624379085,0.938220343926,-0.240624379085,-0.061753855025,-0.239840704664
600000000.0,-0.0864909217991,-0.280137305583,0.913483057038,-0.281078305738,0.913483057038,-0.281078305738,-0.0864909217991,-0.280137305583
700000000.0,-0.11406656972,-0.316859738203,0.885907170512,-0.317958316174,0.885907170512,-0.317958316174,-0.11406656972,-0.316859738203
800000000.0,-0.143856262125,-0.349830064816,0.856117219289,-0.351086487648,0.856117219289,-0.351086487648,-0.143856262125,-0.349830064816
900000000.0,-0.175254827651,-0.378989884862,0.824718373501,-0.380404431628,0.824718373501,-0.380404431628,-0.175254827651,-0.378989884862
1000000000.0,-0.207698609154,-0.404383794419,0.792274289361,-0.405956753691,0.792274289361,-0.405956753691,-0.207698609154,-0.404383794419
1100000000.0,-0.240680819179,-0.426139902728,0.759291753592,-0.427871570396,0.759291753592,-0.427871570396,-0.240680819179,-0.426139902728
1200000000.0,-0.27376043733,-0.444449641068,0.726211785987,-0.446340318436,0.726211785987,-0.446340318436,-0.27376043733,-0.444449641068
1300000000.0,-0.306565553064,-0.459548578556,0.693406296585,-0.461598570691,0.693406296585,-0.461598570691,-0.306565553064,-0.459548578556
1400000000.0,-0.33879234249,-0.471699380834,0.661179108843,-0.473908995126,0.661179108843,-0.473908995126,-0.33879234249,-0.471699380834
1500000000.0,-0.370200921934,-0.4811775165,0.629770106053,-0.483547061407,0.629770106053,-0.483547061407,-0.370200921934,-0.4811775165
1600000000.0,-0.400609217136,-0.488259890919,0.599361362138,-0.490789674892,0.599361362138,-0.490789674892,-0.400609217136,-0.488259890919
1700000000.0,-0.42988579607,-0.493216286599,0.570084308817,-0.495906617139,0.570084308817,-0.495906617139,-0.42988579607,-0.493216286599
1800000000.0,-0.457942392152,-0.496303305418,0.542027212396,-0.499154488285,0.542027212396,-0.499154488285,-0.457942392152,-0.496303305418
1900000000.0,-0.484726631347,-0.497760418812,0.515242446656,-0.50077275734,0.515242446656,-0.50077275734,-0.484726631347,-0.497760418812
2000000000.0,-0.510215292803,-0.497807711013,0.489753232212,-0.500981505541,0.489753232212,-0.500981505541,-0.510215292803,-0.497807711013
2100000000.0,-0.534408286789,-0.496644923394,0.465559658574,-0.499980470784,0.465559658574,-0.499980470784,-0.534408286789,-0.496644923394
2200000000.0,-0.557323425906,-0.494451454998,0.442643912938,-0.497949048244,0.442643912938,-0.497949048244,-0.557323425906,-0.494451454998
2300000000.0,-0.578991991392,-0.491387031348,0.420974713871,-0.495046959255,0.420974713871,-0.495046959255,-0.578991991392,-0.491387031348
2400000000.0,-0.599455049349,-0.48759281122,0.40051099509,-0.491415358158,0.40051099509,-0.491415358158,-0.599455049349,-0.48759281122
2500000000.0,-0.6187604452,-0.483192753924,0.381204911,-0.487178199633,0.381204911,-0.487178199633,-0.6187604452,-0.483192753924
2600000000.0,-0.636960392824,-0.478295115124,0.363004247559,-0.482443734574,0.363004247559,-0.482443734574,-0.636960392824,-0.478295115124
2700000000.0,-0.654109572669,-0.472993976614,0.345854324164,-0.477306039912,0.345854324164,-0.477306039912,-0.654109572669,-0.472993976614
2800000000.0,-0.67026365705,-0.467370745077,0.329699468355,-0.471846517413,0.329699468355,-0.471846517413,-0.67026365705,-0.467370745077
2900000000.0,-0.685478188152,-0.461495577586,0.314484137803,-0.466135319214,0.314484137803,-0.466135319214,-0.685478188152,-0.461495577586
3000000000.0,-0.699807743124,-0.455428708521,0.300153755225,-0.460232674767,0.300153755225,-0.460232674767,-0.699807743124,-0.455428708521
3100000000.0,-0.713305329844,-0.449221664838,0.286655312616,-0.454190106143,0.286655312616,-0.454190106143,-0.713305329844,-0.449221664838
3200000000.0,-0.726021965782,-0.442918365256,0.27393779238,-0.448051527232,0.27393779238,-0.448051527232,-0.726021965782,-0.442918365256
3300000000.0,-0.738006400487,-0.436556104688,0.26195244485,-0.441854228198,0.26195244485,-0.441854228198,-0.738006400487,-0.436556104688
3400000000.0,-0.749304949317,-0.430166429048,0.250652954552,-0.4356297503,0.250652954552,-0.4356297503,-0.749304949317,-0.430166429048
3500000000.0,-0.759961412201,-0.423775907739,0.239995521449,-0.429404658396,0.239995521449,-0.429404658396,-0.759961412201,-0.423775907739
3600000000.0,-0.770017056364,-0.417406812339,0.229938878206,-0.423201219635,0.229938878206,-0.423201219635,-0.770017056364,-0.417406812339
3700000000.0,-0.779510646306,-0.411077710393,0.22044426022,-0.417037997264,0.22044426022,-0.417037997264,-0.779510646306,-0.411077710393
3800000000.0,-0.788478507833,-0.404803983179,0.211475341585,-0.410930368399,0.211475341585,-0.410930368399,-0.788478507833,-0.404803983179
3900000000.0,-0.796954615825,-0.398598275923,0.202998147322,-0.404890974245,0.202998147322,-0.404890974245,-0.796954615825,-0.398598275923
4000000000.0,-0.804970697791,-0.392470888384,0.194980949828,-0.398930110682,0.194980949828,-0.398930110682,-0.804970697791,-0.392470888384
4100000000.0,-0.812556347062,-0.386430113054,0.187394155678,-0.393056066475,0.187394155678,-0.393056066475,-0.812556347062,-0.386430113054
4200000000.0,-0.819739141027,-0.380482527553,0.180210187393,-0.387275415666,0.180210187393,-0.387275415666,-0.819739141027,-0.380482527553
4300000000.0,-0.826544760908,-0.374633247081,0.173403363661,-0.381593270026,0.173403363661,-0.381593270026,-0.826544760908,-0.374633247081
4400000000.0,-0.832997110574,-0.368886142138,0.166949780527,-0.376013496781,0.166949780527,-0.376013496781,-0.832997110574,-0.368886142138
4500000000.0,-0.839118432527,-0.363244026121,0.160827195402,-0.370538906202,0.160827195402,-0.370538906202,-0.839118432527,-0.363244026121
4600000000.0,-0.844929419812,-0.357708816819,0.155014915158,-0.3651714131,0.155014915158,-0.3651714131,-0.844929419812,-0.357708816819
4700000000.0,-0.850449322997,-0.352281675335,0.149493689144,-0.359912175751,0.149493689144,-0.359912175751,-0.850449322997,-0.352281675335
4800000000.0,-0.85569605169,-0.346963125514,0.14424560767,-0.354761715314,0.14424560767,-0.354761715314,-0.85569605169,-0.346963125514
4900000000.0,-0.860686270333,-0.341753156524,0.139254006213,-0.349720018419,0.139254006213,-0.349720018419,-0.860686270333,-0.341753156524
5000000000.0,-0.86543548816,-0.336651310926,0.13450337546,-0.344786625226,0.13450337546,-0.344786625226,-0.86543548816,-0.336651310926
5100000000.0,-0.869958143368,-0.331656760215,0.129979277133,-0.339960704969,0.129979277133,-0.339960704969,-0.869958143368,-0.331656760215
5200000000.0,-0.874267681626,-0.326768369572,0.125668265486,-0.335241120699,0.125668265486,-0.335241120699,-0.874267681626,-0.326768369572
5300000000.0,-0.878376629124,-0.321984753316,0.121557814249,-0.330626484739,0.121557814249,-0.330626484739,-0.878376629124,-0.321984753316
5400000000.0,-0.882296660407,-0.317304322348,0.117636248801,-0.326115206121,0.117636248801,-0.326115206121,-0.882296660407,-0.317304322348
5500000000.0,-0.886038661258,-0.312725324698,0.113892683281,-0.321705531127,0.113892683281,-0.321705531127,-0.886038661258,-0.312725324698
5600000000.0,-0.889612786926,-0.308245880125,0.110316962363,-0.317395577893,0.110316962363,-0.317395577893,-0.889612786926,-0.308245880125
5700000000.0,-0.893028515972,-0.303864009612,0.106899607408,-0.313183365894,0.106899607408,-0.313183365894,-0.893028515972,-0.303864009612
5800000000.0,-0.896294700047,-0.299577660454,0.103631766689,-0.309066841031,0.103631766689,-0.309066841031,-0.896294700047,-0.299577660454
5900000000.0,-0.899419609848,-0.295384727555,0.100505169431,-0.305043896922,0.100505169431,-0.305043896922,-0.899419609848,-0.295384727555
6000000000.0,-0.902410977566,-0.291283071465,0.0975120833671,-0.301112392941,0.0975120833671,-0.301112392941,-0.902410977566,-0.291283071465
6100000000.0,-0.905276036043,-0.287270533615,0.094645275576,-0.297270169443,0.094645275576,-0.297270169443,-0.905276036043,-0.287270533615
6200000000.0,-0.908021554921,-0.283344949134,0.09189797634,-0.293515060582,0.09189797634,-0.293515060582,-0.908021554921,-0.283344949134
6300000000.0,-0.910653873983,-0.279504157591,0.0892638457975,-0.289844905048,0.0892638457975,-0.289844905048,-0.910653873983,-0.279504157591
6400000000.0,-0.913178933926,-0.27574601196,0.0867369431737,-0.28625755503,0.0867369431737,-0.28625755503,-0.913178933926,-0.27574601196
6500000000.0,-0.915602304752,-0.272068386046,0.0843116983866,-0.282750883637,0.0843116983866,-0.282750883637,-0.915602304752,-0.272068386046
6600000000.0,-0.917929211978,-0.268469180602,0.0819828858419,-0.279322791011,0.0819828858419,-0.279322791011,-0.917929211978,-0.268469180602
6700000000.0,-0.920164560823,-0.264946328314,0.079745600241,-0.275971209314,0.079745600241,-0.275971209314,-0.920164560823,-0.264946328314
6800000000.0,-0.922312958546,-0.261497797823,0.0775952342435,-0.272694106742,0.0775952342435,-0.272694106742,-0.922312958546,-0.261497797823
6900000000.0,-0.924378735083,-0.258121596922,0.0755274578341,-0.269489490722,0.0755274578341,-0.269489490722,-0.924378735083,-0.258121596922
7000000000.0,-0.926365962107,-0.254815775041,0.0735381992584,-0.266355410391,0.0735381992584,-0.266355410391,-0.926365962107,-0.254815775041
7100000000.0,-0.928278470651,-0.251578425135,0.0716236274001,-0.263289958485,0.0716236274001,-0.263289958485,-0.928278470651,-0.251578425135
7200000000.0,-0.930119867408,-0.248407685056,0.0697801354857,-0.260291272708,0.0697801354857,-0.260291272708,-0.930119867408,-0.248407685056
7300000000.0,-0.931893549799,-0.245301738489,0.068004326009,-0.257357536662,0.068004326009,-0.257357536662,-0.931893549799,-0.245301738489
7400000000.0,-0.933602719933,-0.242258815521,0.0662929967777,-0.254486980417,0.0662929967777,-0.254486980417,-0.933602719933,-0.242258815521
7500000000.0,-0.935250397523,-0.239277192895,0.0646431279939,-0.251677880764,0.0646431279939,-0.251677880764,-0.935250397523,-0.239277192895
7600000000.0,-0.936839431857,-0.236355194007,0.0630518702838,-0.248928561202,0.0630518702838,-0.248928561202,-0.936839431857,-0.236355194007
7700000000.0,-0.938372512891,-0.233491188675,0.061516533604,-0.246237391715,0.061516533604,-0.246237391715,-0.938372512891,-0.233491188675
7800000000.0,-0.939852181542,-0.230683592736,0.060034576952,-0.243602788361,0.060034576952,-0.243602788361,-0.939852181542,-0.230683592736
7900000000.0,-0.941280839226,-0.227930867483,0.058603598821,-0.241023212707,0.058603598821,-0.241023212707,-0.941280839226,-0.227930867483
8000000000.0,-0.942660756729,-0.225231518985,0.0572213283374,-0.23849717115,0.0572213283374,-0.23849717115,-0.942660756729,-0.225231518985
8100000000.0,-0.943994082431,-0.2225840973,0.0558856170301,-0.236023214126,0.0558856170301,-0.236023214126,-0.943994082431,-0.2225840973
8200000000.0,-0.94528284996,-0.219987195616,0.054594431181,-0.233599935248,0.054594431181,-0.233599935248,-0.94528284996,-0.219987195616
8300000000.0,-0.946528985299,-0.21743944932,0.0533458447132,-0.231225970376,0.0533458447132,-0.231225970376,-0.946528985299,-0.21743944932
8400000000.0,-0.947734313408,-0.214939535026,0.0521380325737,-0.228899996644,0.0521380325737,-0.228899996644,-0.947734313408,-0.214939535026
8500000000.0,-0.948900564381,-0.212486169564,0.0509692645753,-0.226620731444,0.0509692645753,-0.226620731444,-0.948900564381,-0.212486169564
8600000000.0,-0.950029379179,-0.210078108945,0.0498378996603,-0.22438693139,0.0498378996603,-0.22438693139,-0.950029379179,-0.210078108945
8700000000.0,-0.951122314978,-0.207714147308,0.0487423805564,-0.222197391268,0.0487423805564,-0.222197391268,-0.951122314978,-0.207714147308
8800000000.0,-0.952180850151,-0.205393115863,0.0476812287934,-0.220050942972,0.0476812287934,-0.220050942972,-0.952180850151,-0.205393115863
8900000000.0,-0.953206388916,-0.203113881827,0.0466530400552,-0.217946454444,0.0466530400552,-0.217946454444,-0.953206388916,-0.203113881827
9000000000.0,-0.954200265671,-0.20087534737,0.0456564798421,-0.215882828612,0.0456564798421,-0.215882828612,-0.954200265671,-0.20087534737
9100000000.0,-0.955163749051,-0.198676448564,0.0446902794194,-0.213859002345,0.0446902794194,-0.213859002345,-0.955163749051,-0.198676448564
9200000000.0,-0.956098045708,-0.196516154348,0.0437532320328,-0.211873945411,0.0437532320328,-0.211873945411,-0.956098045708,-0.196516154348
9300000000.0,-0.95700430385,-0.194393465503,0.0428441893705,-0.209926659456,0.0428441893705,-0.209926659456,-0.95700430385,-0.194393465503
9400000000.0,-0.957883616551,-0.192307413651,0.0419620582546,-0.208016176999,0.0419620582546,-0.208016176999,-0.957883616551,-0.192307413651
9500000000.0,-0.958737024845,-0.190257060273,0.041105797544,-0.206141560446,0.041105797544,-0.206141560446,-0.958737024845,-0.190257060273
9600000000.0,-0.959565520629,-0.188241495743,0.0402744152358,-0.20430190113,0.0402744152358,-0.20430190113,-0.959565520629,-0.188241495743
9700000000.0,-0.960370049374,-0.186259838389,0.0394669657503,-0.202496318366,0.0394669657503,-0.202496318366,-0.960370049374,-0.186259838389
9800000000.0,-0.961151512672,-0.184311233577,0.0386825473852,-0.200723958537,0.0386825473852,-0.200723958537,-0.961151512672,-0.184311233577
9900000000.0,-0.961910770624,-0.182394852822,0.0379202999301,-0.198983994201,0.0379202999301,-0.198983994201,-0.961910770624,-0.182394852822
10000000000.0,-0.962648644074,-0.180509892916,0.0371794024277,-0.197275623222,0.0371794024277,-0.197275623222,-0.962648644074,-0.180509892916
