freq (GHz),S11_real,S11_imag,S21_real,S21_imag,S12_real,S12_imag,S22_real,S22_imag
100000000.0,0.00062781746568,-0.00161051950031,0.999345217938,-0.0046989837468,0.999345217938,-0.0046989837468,0.00062781746568,-0.00161051950031
200000000.0,0.000606390104472,-0.00322100278392,0.999300859245,-0.00939795543006,0.999300859245,-0.00939795543006,0.000606390104472,-0.00322100278392
300000000.0,0.000568710643258,-0.00483135193407,0.999232926871,-0.0140968709696,0.999232926871,-0.0140968709696,0.000568710643257,-0.00483135193407
400000000.0,0.000515330173284,-0.00644145998701,0.999140865373,-0.0187956530755,0.999140865373,-0.0187956530755,0.000515330173283,-0.00644145998701
500000000.0,0.00044646027676,-0.00805121322904,0.999024459431,-0.0234942093709,0.999024459431,-0.0234942093709,0.00044646027676,-0.00805121322904
600000000.0,0.00036220902964,-0.0096604930066,0.998883598247,-0.0281924378237,0.998883598247,-0.0281924378237,0.00036220902964,-0.0096604930066
700000000.0,0.000262641015768,-0.0112691768073,0.998718215817,-0.0328902294007,0.998718215817,-0.0328902294007,0.000262641015768,-0.0112691768073
800000000.0,0.000147799261685,-0.0128771389661,0.998528269218,-0.0375874696251,0.998528269218,-0.0375874696251,0.000147799261684,-0.0128771389661
900000000.0,1.77150310208e-05,-0.0144842511617,0.998313728999,-0.0422840395964,0.998313728999,-0.0422840395964,1.77150310205e-05,-0.0144842511617
1000000000.0,-0.000127587187946,-0.0160903827845,0.998074574345,-0.0469798167059,0.998074574345,-0.0469798167059,-0.000127587187946,-0.0160903827845
1100000000.0,-0.000288086891024,-0.0176954012221,0.997810790414,-0.0516746751677,0.997810790414,-0.0516746751677,-0.000288086891024,-0.0176954012221
1200000000.0,-0.000463765879532,-0.0192991720874,0.99752236678,-0.056368486428,0.99752236678,-0.056368486428,-0.000463765879532,-0.0192991720874
1300000000.0,-0.000654607191486,-0.0209015594076,0.997209296462,-0.0610611194906,0.997209296462,-0.0610611194906,-0.000654607191485,-0.0209015594076
1400000000.0,-0.000860594388493,-0.0225024257825,0.996871575304,-0.065752441184,0.996871575304,-0.065752441184,-0.000860594388493,-0.0225024257825
1500000000.0,-0.00108171106089,-0.0241016325217,0.996509201565,-0.0704423163835,0.996509201565,-0.0704423163835,-0.00108171106089,-0.0241016325217
1600000000.0,-0.00131794047265,-0.0256990397645,0.996122175634,-0.0751306082008,0.996122175634,-0.0751306082008,-0.00131794047265,-0.0256990397645
1700000000.0,-0.00156926529906,-0.0272945065861,0.995710499839,-0.0798171781482,0.995710499839,-0.0798171781482,-0.00156926529906,-0.0272945065861
1800000000.0,-0.00183566742792,-0.0288878910933,0.995274178312,-0.084501886282,0.995274178312,-0.084501886282,-0.00183566742792,-0.0288878910933
1900000000.0,-0.00211712780562,-0.0304790505117,0.99481321689,-0.0891845913303,0.99481321689,-0.0891845913303,-0.00211712780562,-0.0304790505117
2000000000.0,-0.00241362631534,-0.0320678412659,0.994327623046,-0.0938651508078,0.994327623046,-0.0938651508078,-0.00241362631534,-0.0320678412659
2100000000.0,-0.00272514167933,-0.0336541190532,0.99381740584,-0.098543421119,0.99381740584,-0.098543421119,-0.00272514167933,-0.0336541190532
2200000000.0,-0.00305165137898,-0.0352377389132,0.993282575884,-0.103219257654,0.993282575884,-0.103219257654,-0.00305165137898,-0.0352377389132
2300000000.0,-0.00339313158877,-0.0368185552923,0.992723145318,-0.107892514874,0.992723145318,-0.107892514874,-0.00339313158877,-0.0368185552923
2400000000.0,-0.00374955712103,-0.0383964221056,0.992139127789,-0.112563046394,0.992139127789,-0.112563046394,-0.00374955712103,-0.0383964221056
2500000000.0,-0.00412090137921,-0.0399711927946,0.99153053844,-0.117230705058,0.99153053844,-0.117230705058,-0.00412090137921,-0.0399711927946
2600000000.0,-0.00450713631809,-0.0415427203833,0.990897393905,-0.121895343009,0.990897393905,-0.121895343009,-0.00450713631809,-0.0415427203833
2700000000.0,-0.00490823240968,-0.0431108575309,0.9902397123,-0.126556811756,0.9902397123,-0.126556811756,-0.00490823240968,-0.0431108575309
2800000000.0,-0.00532415861375,-0.0446754565836,0.989557513219,-0.131214962236,0.989557513219,-0.131214962236,-0.00532415861375,-0.0446754565836
2900000000.0,-0.00575488235243,-0.046236369623,0.988850817739,-0.135869644876,0.988850817739,-0.135869644876,-0.00575488235243,-0.046236369623
3000000000.0,-0.00620036948802,-0.0477934485145,0.98811964841,-0.140520709649,0.98811964841,-0.140520709649,-0.00620036948802,-0.0477934485145
3100000000.0,-0.00666058430387,-0.0493465449531,0.987364029262,-0.145168006128,0.987364029262,-0.145168006128,-0.00666058430387,-0.0493465449531
3200000000.0,-0.0071354894877,-0.0508955105083,0.986583985805,-0.14981138354,0.986583985805,-0.14981138354,-0.0071354894877,-0.0508955105083
3300000000.0,-0.00762504611714,-0.0524401966673,0.985779545024,-0.154450690812,0.985779545024,-0.154450690812,-0.00762504611714,-0.0524401966673
3400000000.0,-0.00812921364732,-0.0539804548779,0.984950735388,-0.159085776627,0.984950735388,-0.159085776627,-0.00812921364732,-0.0539804548779
3500000000.0,-0.00864794990018,-0.0555161365897,0.984097586842,-0.163716489464,0.984097586842,-0.163716489464,-0.00864794990018,-0.0555161365897
3600000000.0,-0.00918121105546,-0.0570470932946,0.983220130816,-0.168342677647,0.983220130816,-0.168342677647,-0.00918121105546,-0.0570470932946
3700000000.0,-0.00972895164308,-0.0585731765663,0.982318400219,-0.172964189385,0.982318400219,-0.172964189385,-0.00972895164307,-0.0585731765663
3800000000.0,-0.0102911245369,-0.060094238099,0.981392429438,-0.177580872823,0.981392429438,-0.177580872823,-0.0102911245369,-0.060094238099
3900000000.0,-0.0108676809498,-0.0616101297453,0.980442254344,-0.182192576072,0.980442254344,-0.182192576072,-0.0108676809498,-0.0616101297453
4000000000.0,-0.0114585704299,-0.0631207035537,0.979467912285,-0.186799147259,0.979467912285,-0.186799147259,-0.0114585704299,-0.0631207035537
4100000000.0,-0.0120637408575,-0.0646258118048,0.978469442086,-0.191400434562,0.978469442086,-0.191400434562,-0.0120637408575,-0.0646258118048
4200000000.0,-0.0126831384441,-0.0661253070473,0.977446884046,-0.195996286245,0.977446884046,-0.195996286245,-0.0126831384441,-0.0661253070473
4300000000.0,-0.0133167077307,-0.0676190421331,0.976400279938,-0.200586550705,0.976400279938,-0.200586550705,-0.0133167077307,-0.0676190421331
4400000000.0,-0.0139643915887,-0.069106870252,0.975329673006,-0.205171076498,0.975329673006,-0.205171076498,-0.0139643915887,-0.069106870252
4500000000.0,-0.0146261312208,-0.0705886449656,0.974235107956,-0.209749712381,0.974235107956,-0.209749712381,-0.0146261312208,-0.0705886449656
4600000000.0,-0.0153018661626,-0.0720642202412,0.973116630959,-0.214322307345,0.973116630959,-0.214322307345,-0.0153018661626,-0.0720642202412
4700000000.0,-0.0159915342854,-0.0735334504839,0.971974289642,-0.218888710647,0.971974289642,-0.218888710647,-0.0159915342854,-0.0735334504839
4800000000.0,-0.0166950717998,-0.0749961905697,0.970808133084,-0.223448771849,0.970808133084,-0.223448771849,-0.0166950717998,-0.0749961905697
4900000000.0,-0.0174124132595,-0.0764522958772,0.969618211809,-0.228002340845,0.969618211809,-0.228002340845,-0.0174124132595,-0.0764522958772
5000000000.0,-0.0181434915664,-0.0779016223184,0.968404577784,-0.232549267894,0.968404577784,-0.232549267894,-0.0181434915664,-0.0779016223184
5100000000.0,-0.018888237976,-0.0793440263705,0.967167284405,-0.237089403654,0.967167284405,-0.237089403654,-0.018888237976,-0.0793440263705
5200000000.0,-0.0196465821035,-0.0807793651055,0.965906386499,-0.241622599211,0.965906386499,-0.241622599211,-0.0196465821035,-0.0807793651055
5300000000.0,-0.0204184519308,-0.0822074962203,0.964621940307,-0.246148706108,0.964621940307,-0.246148706108,-0.0204184519308,-0.0822074962203
5400000000.0,-0.0212037738137,-0.0836282780664,0.963314003481,-0.250667576377,0.963314003481,-0.250667576377,-0.0212037738137,-0.0836282780664
5500000000.0,-0.02200247249,-0.0850415696784,0.961982635077,-0.255179062563,0.961982635077,-0.255179062563,-0.02200247249,-0.0850415696784
5600000000.0,-0.0228144710879,-0.0864472308029,0.960627895539,-0.25968301776,0.960627895539,-0.25968301776,-0.0228144710879,-0.0864472308029
5700000000.0,-0.0236396911355,-0.0878451219263,0.959249846697,-0.264179295631,0.959249846697,-0.264179295631,-0.0236396911355,-0.0878451219263
5800000000.0,-0.0244780525699,-0.0892351043023,0.957848551749,-0.268667750441,0.957848551749,-0.268667750441,-0.0244780525699,-0.0892351043023
5900000000.0,-0.0253294737477,-0.0906170399794,0.956424075259,-0.273148237078,0.956424075259,-0.273148237078,-0.0253294737477,-0.0906170399794
6000000000.0,-0.0261938714557,-0.0919907918271,0.954976483139,-0.277620611085,0.954976483139,-0.277620611085,-0.0261938714557,-0.0919907918271
6100000000.0,-0.027071160922,-0.0933562235626,0.95350584264,-0.28208472868,0.95350584264,-0.28208472868,-0.027071160922,-0.0933562235626
6200000000.0,-0.0279612558273,-0.0947131997764,0.95201222234,-0.286540446786,0.95201222234,-0.286540446786,-0.0279612558273,-0.0947131997764
6300000000.0,-0.0288640683177,-0.0960615859575,0.950495692133,-0.290987623051,0.950495692133,-0.290987623051,-0.0288640683177,-0.0960615859575
6400000000.0,-0.0297795090166,-0.0974012485187,0.948956323214,-0.295426115875,0.948956323214,-0.295426115875,-0.0297795090166,-0.0974012485187
6500000000.0,-0.0307074870381,-0.0987320548209,0.947394188067,-0.299855784432,0.947394188067,-0.299855784432,-0.0307074870381,-0.0987320548209
6600000000.0,-0.0316479099999,-0.100053873197,0.945809360452,-0.304276488695,0.945809360452,-0.304276488695,-0.0316479099999,-0.100053873197
6700000000.0,-0.0326006840379,-0.101366572975,0.944201915388,-0.308688089455,0.944201915388,-0.308688089455,-0.0326006840379,-0.101366572975
6800000000.0,-0.0335657138195,-0.102670024504,0.942571929143,-0.313090448344,0.942571929143,-0.313090448344,-0.0335657138195,-0.102670024504
6900000000.0,-0.034542902559,-0.103964099173,0.940919479219,-0.317483427859,0.940919479219,-0.317483427859,-0.034542902559,-0.103964099173
7000000000.0,-0.0355321520319,-0.105248669434,0.939244644332,-0.32186689138,0.939244644332,-0.32186689138,-0.0355321520319,-0.105248669434
7100000000.0,-0.0365333625909,-0.106523608828,0.937547504402,-0.326240703193,0.937547504402,-0.326240703193,-0.0365333625909,-0.106523608828
7200000000.0,-0.037546433181,-0.107788792001,0.935828140536,-0.330604728506,0.935828140536,-0.330604728506,-0.037546433181,-0.107788792001
7300000000.0,-0.0385712613557,-0.109044094728,0.934086635011,-0.334958833472,0.934086635011,-0.334958833472,-0.0385712613557,-0.109044094728
7400000000.0,-0.0396077432936,-0.110289393933,0.932323071257,-0.339302885208,0.932323071257,-0.339302885208,-0.0396077432936,-0.110289393933
7500000000.0,-0.0406557738148,-0.11152456771,0.930537533845,-0.343636751811,0.930537533845,-0.343636751811,-0.0406557738148,-0.11152456771
7600000000.0,-0.0417152463979,-0.112749495339,0.928730108462,-0.347960302377,0.928730108462,-0.347960302377,-0.0417152463979,-0.112749495339
7700000000.0,-0.0427860531974,-0.113964057312,0.926900881904,-0.352273407022,0.926900881904,-0.352273407022,-0.0427860531974,-0.113964057312
7800000000.0,-0.0438680850612,-0.115168135345,0.92504994205,-0.356575936891,0.92504994205,-0.356575936891,-0.0438680850612,-0.115168135345
7900000000.0,-0.0449612315484,-0.116361612401,0.923177377849,-0.360867764184,0.923177377849,-0.360867764184,-0.0449612315484,-0.116361612401
8000000000.0,-0.0460653809475,-0.117544372707,0.921283279298,-0.365148762165,0.921283279298,-0.365148762165,-0.0460653809475,-0.117544372707
8100000000.0,-0.0471804202947,-0.118716301768,0.919367737432,-0.369418805182,0.919367737432,-0.369418805182,-0.0471804202947,-0.118716301768
8200000000.0,-0.0483062353923,-0.11987728639,0.917430844295,-0.373677768678,0.917430844295,-0.373677768678,-0.0483062353923,-0.11987728639
8300000000.0,-0.049442710828,-0.121027214694,0.915472692929,-0.377925529211,0.915472692929,-0.377925529211,-0.049442710828,-0.121027214694
8400000000.0,-0.0505897299937,-0.122165976129,0.913493377354,-0.382161964464,0.913493377354,-0.382161964464,-0.0505897299937,-0.122165976129
8500000000.0,-0.0517471751046,-0.123293461494,0.911492992545,-0.386386953258,0.911492992545,-0.386386953258,-0.0517471751046,-0.123293461494
8600000000.0,-0.0529149272191,-0.12440956295,0.909471634418,-0.39060037557,0.909471634418,-0.39060037557,-0.0529149272191,-0.12440956295
8700000000.0,-0.0540928662581,-0.125514174034,0.907429399808,-0.394802112544,0.907429399808,-0.394802112544,-0.0540928662581,-0.125514174034
8800000000.0,-0.0552808710252,-0.126607189675,0.905366386448,-0.398992046498,0.905366386448,-0.398992046498,-0.0552808710252,-0.126607189675
8900000000.0,-0.0564788192265,-0.12768850621,0.903282692954,-0.403170060944,0.903282692954,-0.403170060944,-0.0564788192265,-0.12768850621
9000000000.0,-0.057686587491,-0.128758021394,0.901178418801,-0.407336040596,0.901178418801,-0.407336040596,-0.057686587491,-0.128758021394
9100000000.0,-0.0589040513907,-0.129815634416,0.899053664302,-0.411489871377,0.899053664302,-0.411489871377,-0.0589040513907,-0.129815634416
9200000000.0,-0.0601310854617,-0.13086124591,0.896908530594,-0.415631440438,0.896908530594,-0.415631440438,-0.0601310854617,-0.13086124591
9300000000.0,-0.0613675632241,-0.131894757968,0.894743119612,-0.419760636159,0.894743119612,-0.419760636159,-0.0613675632241,-0.131894757968
9400000000.0,-0.0626133572036,-0.132916074155,0.892557534069,-0.423877348165,0.892557534069,-0.423877348165,-0.0626133572036,-0.132916074155
9500000000.0,-0.0638683389517,-0.133925099514,0.890351877441,-0.427981467333,0.890351877441,-0.427981467333,-0.0638683389517,-0.133925099514
9600000000.0,-0.0651323790673,-0.134921740585,0.88812625394,-0.4320728858,0.88812625394,-0.4320728858,-0.0651323790673,-0.134921740585
9700000000.0,-0.0664053472175,-0.13590590541,0.885880768495,-0.436151496972,0.885880768495,-0.436151496972,-0.0664053472175,-0.13590590541
9800000000.0,-0.0676871121592,-0.136877503546,0.883615526734,-0.440217195532,0.883615526734,-0.440217195532,-0.0676871121592,-0.136877503546
9900000000.0,-0.06897754176,-0.137836446072,0.881330634962,-0.444269877446,0.881330634962,-0.444269877446,-0.06897754176,-0.137836446072
10000000000.0,-0.07027650302,-0.138782645604,0.879026200137,-0.448309439973,0.879026200137,-0.448309439973,-0.07027650302,-0.138782645604
