freq (GHz),S11_real,S11_imag,S21_real,S21_imag,S12_real,S12_imag,S22_real,S22_imag
100000000.0,0.0518116834293,0.00311186814982,0.948184851877,-0.00457671920246,0.948184851877,-0.00457671920246,0.0518116834293,0.00311186814982
200000000.0,0.0521799408054,0.00621811967691,0.947811944362,-0.00914783113993,0.947811944362,-0.00914783113993,0.0521799408054,0.00621811967691
300000000.0,0.0524902608884,0.0093205493562,0.947494788107,-0.0137151395991,0.947494788107,-0.0137151395991,0.0524902608884,0.0093205493562
400000000.0,0.0527855568848,0.0124195530515,0.947190469401,-0.0182790483897,0.947190469401,-0.0182790483897,0.0527855568848,0.0124195530515
500000000.0,0.0530823705666,0.0155152016499,0.94688244598,-0.0228396358102,0.94688244598,-0.0228396358102,0.0530823705666,0.0155152016499
600000000.0,0.0533891359526,0.0186074224866,0.946562283316,-0.0273968362602,0.946562283316,-0.0273968362602,0.0533891359526,0.0186074224866
700000000.0,0.0537108263943,0.0216960645365,0.946225007524,-0.0319505055261,0.946225007524,-0.0319505055261,0.0537108263943,0.0216960645365
800000000.0,0.0540506519823,0.0247809286822,0.945867407948,-0.0365004511058,0.945867407948,-0.0365004511058,0.0540506519823,0.0247809286822
900000000.0,0.0544108158843,0.0278617840002,0.945487280818,-0.041046448533,0.945487280818,-0.041046448533,0.0544108158843,0.0278617840002
1000000000.0,0.0547928979888,0.0309383774331,0.945083045603,-0.0455882510745,0.945083045603,-0.0455882510745,0.0547928979888,0.0309383774331
1100000000.0,0.0551980683165,0.0340104399591,0.944653531603,-0.05012559592,0.944653531603,-0.05012559592,0.0551980683165,0.0340104399591
1200000000.0,0.0556272142736,0.0370776907497,0.944197850686,-0.0546582083535,0.944197850686,-0.0546582083535,0.0556272142736,0.0370776907497
1300000000.0,0.0560810207699,0.0401398400962,0.943715317177,-0.0591858046924,0.943715317177,-0.0591858046924,0.0560810207699,0.0401398400962
1400000000.0,0.0565600229192,0.0431965915466,0.943205395152,-0.0637080944326,0.943205395152,-0.0637080944326,0.0565600229192,0.0431965915466
1500000000.0,0.0570646419798,0.0462476435128,0.942667662501,-0.0682247818641,0.942667662501,-0.0682247818641,0.0570646419798,0.0462476435128
1600000000.0,0.0575952106202,0.0492926905124,0.942101785655,-0.0727355673185,0.942101785655,-0.0727355673185,0.0575952106202,0.0492926905124
1700000000.0,0.0581519911453,0.0523314241498,0.941507501369,-0.0772401481562,0.941507501369,-0.0772401481562,0.0581519911453,0.0523314241498
1800000000.0,0.0587351889428,0.0553635339078,0.940884603268,-0.0817382195618,0.940884603268,-0.0817382195618,0.0587351889428,0.0553635339078
1900000000.0,0.0593449625989,0.0583887077981,0.940232931733,-0.0862294751983,0.940232931733,-0.0862294751983,0.0593449625989,0.0583887077981
2000000000.0,0.0599814316408,0.0614066329033,0.939552366161,-0.0907136077537,0.939552366161,-0.0907136077537,0.0599814316408,0.0614066329033
2100000000.0,0.0606446825554,0.0644169958374,0.938842818942,-0.0951903094033,0.938842818942,-0.0951903094033,0.0606446825554,0.0644169958374
2200000000.0,0.0613347735335,0.0674194831407,0.938104230718,-0.0996592722076,0.938104230718,-0.0996592722076,0.0613347735335,0.0674194831407
2300000000.0,0.062051738256,0.070413781623,0.937336566596,-0.104120188458,0.937336566596,-0.104120188458,0.062051738256,0.070413781623
2400000000.0,0.062795588952,0.0733995786656,0.936539813089,-0.108572750982,0.936539813089,-0.108572750982,0.062795588952,0.0733995786656
2500000000.0,0.0635663188944,0.0763765624896,0.935713975621,-0.113016653409,0.935713975621,-0.113016653409,0.0635663188944,0.0763765624896
2600000000.0,0.0643639044563,0.0793444223957,0.93485907647,-0.117451590419,0.93485907647,-0.117451590419,0.0643639044563,0.0793444223957
2700000000.0,0.0651883068229,0.0823028489814,0.933975153057,-0.121877257954,0.933975153057,-0.121877257954,0.0651883068229,0.0823028489814
2800000000.0,0.0660394734271,0.0852515343389,0.933062256511,-0.126293353423,0.933062256511,-0.126293353423,0.0660394734271,0.0852515343389
2900000000.0,0.0669173391649,0.0881901722353,0.93212045045,-0.13069957588,0.93212045045,-0.13069957588,0.0669173391649,0.0881901722353
3000000000.0,0.067821827432,0.0911184582803,0.931149809949,-0.135095626193,0.931149809949,-0.135095626193,0.067821827432,0.0911184582803
3100000000.0,0.0687528510145,0.0940360900799,0.930150420647,-0.139481207202,0.930150420647,-0.139481207202,0.0687528510145,0.0940360900799
3200000000.0,0.0697103128595,0.096942767381,0.929122377977,-0.143856023861,0.929122377977,-0.143856023861,0.0697103128595,0.096942767381
3300000000.0,0.0706941067483,0.0998381922052,0.92806578649,-0.148219783374,0.92806578649,-0.148219783374,0.0706941067483,0.0998381922052
3400000000.0,0.0717041178854,0.102722068975,0.926980759272,-0.152572195324,0.926980759272,-0.152572195324,0.0717041178854,0.102722068975
3500000000.0,0.0727402234208,0.105594104634,0.925867417416,-0.156912971788,0.925867417416,-0.156912971788,0.0727402234208,0.105594104634
3600000000.0,0.0738022929133,0.108454008755,0.924725889561,-0.161241827455,0.924725889561,-0.161241827455,0.0738022929133,0.108454008755
3700000000.0,0.0748901887458,0.11130149365,0.923556311477,-0.165558479728,0.923556311477,-0.165558479728,0.0748901887458,0.11130149365
3800000000.0,0.0760037664992,0.114136274468,0.922358825691,-0.169862648828,0.922358825691,-0.169862648828,0.0760037664992,0.114136274468
3900000000.0,0.0771428752907,0.116958069291,0.921133581148,-0.174154057889,0.921133581148,-0.174154057889,0.0771428752907,0.116958069291
4000000000.0,0.078307358083,0.119766599223,0.919880732903,-0.178432433046,0.919880732903,-0.178432433046,0.078307358083,0.119766599223
4100000000.0,0.0794970519671,0.122561588479,0.918600441835,-0.182697503525,0.918600441835,-0.182697503525,0.0794970519671,0.122561588479
4200000000.0,0.0807117884225,0.125342764461,0.917292874393,-0.186949001724,0.917292874393,-0.186949001724,0.0807117884225,0.125342764461
4300000000.0,0.0819513935596,0.128109857843,0.915958202346,-0.191186663291,0.915958202346,-0.191186663291,0.0819513935596,0.128109857843
4400000000.0,0.0832156883435,0.130862602638,0.914596602564,-0.195410227198,0.914596602564,-0.195410227198,0.0832156883435,0.130862602638
4500000000.0,0.0845044888054,0.133600736274,0.913208256809,-0.199619435814,0.913208256809,-0.199619435814,0.0845044888054,0.133600736274
4600000000.0,0.0858176062397,0.136323999659,0.911793351529,-0.203814034969,0.911793351529,-0.203814034969,0.0858176062397,0.136323999659
4700000000.0,0.0871548473909,0.139032137243,0.910352077681,-0.207993774022,0.910352077681,-0.207993774022,0.0871548473909,0.139032137243
4800000000.0,0.0885160146306,0.141724897081,0.908884630547,-0.212158405919,0.908884630547,-0.212158405919,0.0885160146306,0.141724897081
4900000000.0,0.0899009061258,0.144402030892,0.907391209569,-0.216307687254,0.907391209569,-0.216307687254,0.0899009061258,0.144402030892
5000000000.0,0.091309316,0.147063294109,0.905872018187,-0.22044137832,0.905872018187,-0.22044137832,0.091309316,0.147063294109
5100000000.0,0.0927410344869,0.149708445935,0.904327263685,-0.224559243166,0.904327263685,-0.224559243166,0.0927410344869,0.149708445935
5200000000.0,0.0941958480792,0.152337249393,0.902757157044,-0.228661049642,0.902757157044,-0.228661049642,0.0941958480792,0.152337249393
5300000000.0,0.0956735396707,0.154949471367,0.901161912798,-0.232746569451,0.901161912798,-0.232746569451,0.0956735396707,0.154949471367
5400000000.0,0.0971738886951,0.157544882651,0.899541748893,-0.236815578186,0.899541748893,-0.236815578186,0.0971738886951,0.157544882651
5500000000.0,0.0986966712593,0.160123257988,0.89789688656,-0.240867855378,0.89789688656,-0.240867855378,0.0986966712593,0.160123257988
5600000000.0,0.100241660274,0.162684376109,0.896227550179,-0.244903184532,0.896227550179,-0.244903184532,0.100241660274,0.162684376109
5700000000.0,0.101808625578,0.165228019771,0.894533967154,-0.248921353162,0.894533967154,-0.248921353162,0.101808625578,0.165228019771
5800000000.0,0.103397334066,0.167753975787,0.892816367792,-0.25292215283,0.892816367792,-0.25292215283,0.103397334066,0.167753975787
5900000000.0,0.105007549803,0.170262035059,0.891074985181,-0.256905379172,0.891074985181,-0.256905379172,0.105007549803,0.170262035059
6000000000.0,0.106639034147,0.17275199261,0.88931005507,-0.26087083193,0.88931005507,-0.26087083193,0.106639034147,0.17275199261
6100000000.0,0.108291545863,0.175223647606,0.887521815758,-0.264818314978,0.887521815758,-0.264818314978,0.108291545863,0.175223647606
6200000000.0,0.109964841233,0.177676803385,0.885710507978,-0.26874763635,0.885710507978,-0.26874763635,0.109964841233,0.177676803385
6300000000.0,0.11165867417,0.180111267475,0.883876374788,-0.272658608256,0.883876374788,-0.272658608256,0.11165867417,0.180111267475
6400000000.0,0.113372796327,0.182526851617,0.882019661459,-0.276551047108,0.882019661459,-0.276551047108,0.113372796327,0.182526851617
6500000000.0,0.115106957202,0.184923371781,0.880140615373,-0.280424773535,0.880140615373,-0.280424773535,0.115106957202,0.184923371781
6600000000.0,0.116860904245,0.187300648184,0.878239485911,-0.284279612402,0.878239485911,-0.284279612402,0.116860904245,0.187300648184
6700000000.0,0.11863438296,0.189658505302,0.876316524356,-0.288115392818,0.876316524356,-0.288115392818,0.11863438296,0.189658505302
6800000000.0,0.120427137009,0.19199677188,0.874371983787,-0.291931948155,0.874371983787,-0.291931948155,0.120427137009,0.19199677188
6900000000.0,0.122238908309,0.194315280946,0.872406118979,-0.29572911605,0.872406118979,-0.29572911605,0.122238908309,0.194315280946
7000000000.0,0.124069437137,0.196613869815,0.870419186304,-0.299506738422,0.870419186304,-0.299506738422,0.124069437137,0.196613869815
7100000000.0,0.125918462222,0.198892380095,0.868411443637,-0.303264661467,0.868411443637,-0.303264661467,0.125918462222,0.198892380095
7200000000.0,0.127785720841,0.201150657692,0.866383150251,-0.307002735671,0.866383150251,-0.307002735671,0.127785720841,0.201150657692
7300000000.0,0.129670948921,0.203388552811,0.864334566731,-0.310720815807,0.864334566731,-0.310720815807,0.129670948921,0.203388552811
7400000000.0,0.131573881122,0.205605919956,0.862265954877,-0.314418760936,0.862265954877,-0.314418760936,0.131573881122,0.205605919956
7500000000.0,0.13349425094,0.207802617929,0.86017757761,-0.318096434405,0.86017757761,-0.318096434405,0.13349425094,0.207802617929
7600000000.0,0.135431790789,0.209978509822,0.858069698883,-0.321753703847,0.858069698883,-0.321753703847,0.135431790789,0.209978509822
7700000000.0,0.137386232095,0.21213346302,0.855942583592,-0.325390441167,0.855942583592,-0.325390441167,0.137386232095,0.21213346302
7800000000.0,0.139357305387,0.214267349185,0.853796497484,-0.329006522546,0.853796497484,-0.329006522546,0.139357305387,0.214267349185
7900000000.0,0.141344740376,0.216380044252,0.851631707073,-0.332601828423,0.851631707073,-0.332601828423,0.141344740376,0.216380044252
8000000000.0,0.143348266052,0.218471428418,0.849448479552,-0.336176243488,0.849448479552,-0.336176243488,0.143348266052,0.218471428418
8100000000.0,0.145367610757,0.220541386128,0.847247082712,-0.339729656674,0.847247082712,-0.339729656674,0.145367610757,0.220541386128
8200000000.0,0.147402502278,0.222589806063,0.845027784852,-0.343261961135,0.845027784852,-0.343261961135,0.147402502278,0.222589806063
8300000000.0,0.149452667924,0.224616581125,0.8427908547,-0.346773054237,0.8427908547,-0.346773054237,0.149452667924,0.224616581125
8400000000.0,0.15151783461,0.226621608419,0.840536561335,-0.35026283754,0.840536561335,-0.35026283754,0.15151783461,0.226621608419
8500000000.0,0.153597728935,0.228604789234,0.838265174102,-0.353731216779,0.838265174102,-0.353731216779,0.153597728935,0.228604789234
8600000000.0,0.155692077259,0.230566029025,0.835976962534,-0.357178101844,0.835976962534,-0.357178101844,0.155692077259,0.230566029025
8700000000.0,0.157800605785,0.232505237393,0.83367219628,-0.36060340676,0.83367219628,-0.36060340676,0.157800605785,0.232505237393
8800000000.0,0.159923040631,0.234422328057,0.831351145019,-0.364007049665,0.831351145019,-0.364007049665,0.159923040631,0.234422328057
8900000000.0,0.162059107906,0.236317218837,0.829014078397,-0.367388952784,0.829014078397,-0.367388952784,0.162059107906,0.236317218837
9000000000.0,0.164208533785,0.238189831626,0.826661265943,-0.370749042405,0.826661265943,-0.370749042405,0.164208533785,0.238189831626
9100000000.0,0.166371044578,0.24004009236,0.824292977002,-0.374087248854,0.824292977002,-0.374087248854,0.166371044578,0.24004009236
9200000000.0,0.168546366805,0.241867930998,0.821909480662,-0.377403506467,0.821909480662,-0.377403506467,0.168546366805,0.241867930998
9300000000.0,0.170734227262,0.243673281486,0.819511045686,-0.380697753558,0.819511045686,-0.380697753558,0.170734227262,0.243673281486
9400000000.0,0.172934353093,0.245456081731,0.817097940441,-0.383969932395,0.817097940441,-0.383969932395,0.172934353093,0.245456081731
9500000000.0,0.175146471855,0.247216273568,0.814670432832,-0.387219989162,0.814670432832,-0.387219989162,0.175146471855,0.247216273568
9600000000.0,0.177370311585,0.248953802731,0.812228790236,-0.390447873933,0.812228790236,-0.390447873933,0.177370311585,0.248953802731
9700000000.0,0.179605600862,0.250668618816,0.809773279437,-0.393653540636,0.809773279437,-0.393653540636,0.179605600862,0.250668618816
9800000000.0,0.181852068874,0.252360675249,0.807304166561,-0.396836947019,0.807304166561,-0.396836947019,0.181852068874,0.252360675249
9900000000.0,0.18410944548,0.254029929248,0.804821717018,-0.399998054615,0.804821717018,-0.399998054615,0.18410944548,0.254029929248
10000000000.0,0.186377461265,0.255676341793,0.802326195437,-0.403136828706,0.802326195437,-0.403136828706,0.186377461265,0.255676341793
