freq (GHz),S11_real,S11_imag,S21_real,S21_imag,S12_real,S12_imag,S22_real,S22_imag
100000000.0,-6.54563580645e-05,-0.0084563379808,0.999903833584,-0.0084994056703,0.999903833584,-0.00849940567029,-6.54563580644e-05,-0.0084563379808
200000000.0,-0.000289348656309,-0.0169086022392,0.999679729045,-0.0169947398246,0.999679729045,-0.0169947398246,-0.000289348656309,-0.0169086022392
300000000.0,-0.000656746740781,-0.0253530768248,0.999312169794,-0.0254822876733,0.999312169794,-0.0254822876733,-0.000656746740781,-0.0253530768248
400000000.0,-0.00116730387202,-0.0337860732784,0.998801476159,-0.0339583616552,0.998801476159,-0.0339583616552,-0.00116730387202,-0.0337860732784
500000000.0,-0.0018205561045,-0.042203928161,0.998148101968,-0.0424192990982,0.998148101968,-0.0424192990982,-0.0018205561045,-0.042203928161
600000000.0,-0.00261591803992,-0.0506030055757,0.997352627481,-0.050861464787,0.997352627481,-0.050861464787,-0.00261591803992,-0.0506030055757
700000000.0,-0.00355268294487,-0.058979700987,0.996415756415,-0.0592812548046,0.996415756415,-0.0592812548046,-0.00355268294487,-0.058979700987
800000000.0,-0.00463002397388,-0.0673304454832,0.995338313669,-0.0676751008094,0.995338313669,-0.0676751008094,-0.00463002397388,-0.0673304454832
900000000.0,-0.00584699589519,-0.0756517102221,0.994121243138,-0.0760394744887,0.994121243138,-0.0760394744887,-0.00584699589519,-0.0756517102221
1000000000.0,-0.00720253714852,-0.0839400109203,0.992765605418,-0.0843708920552,0.992765605418,-0.0843708920552,-0.00720253714852,-0.0839400109203
1100000000.0,-0.00869547216996,-0.0921919123021,0.991272575357,-0.0926659186998,0.991272575357,-0.0926659186998,-0.00869547216996,-0.0921919123021
1200000000.0,-0.0103245139556,-0.100404032472,0.989643439404,-0.100921172968,0.989643439404,-0.100921172968,-0.0103245139556,-0.100404032472
1300000000.0,-0.0120882668446,-0.108573047178,0.987879592786,-0.109133331028,0.987879592786,-0.109133331028,-0.0120882668446,-0.108573047178
1400000000.0,-0.0139852295053,-0.116695693936,0.985982536488,-0.117299130791,0.985982536488,-0.117299130791,-0.0139852295053,-0.116695693936
1500000000.0,-0.0160137981141,-0.124768775992,0.98395387405,-0.125415375885,0.98395387405,-0.125415375885,-0.0160137981141,-0.124768775992
1600000000.0,-0.018172269713,-0.13278916613,0.981795308195,-0.133478939453,0.981795308195,-0.133478939453,-0.018172269713,-0.13278916613
1700000000.0,-0.0204588457317,-0.14075381028,0.979508637297,-0.141486767772,0.979508637297,-0.141486767772,-0.0204588457317,-0.14075381028
1800000000.0,-0.0228716356651,-0.148659730944,0.977095751696,-0.149435883676,0.977095751696,-0.149435883676,-0.0228716356651,-0.148659730944
1900000000.0,-0.025408660888,-0.156504030409,0.974558629877,-0.157323389767,0.974558629877,-0.157323389767,-0.025408660888,-0.156504030409
2000000000.0,-0.0280678585982,-0.164283893761,0.97189933452,-0.165146471437,0.97189933452,-0.165146471437,-0.0280678585982,-0.164283893761
2100000000.0,-0.0308470858707,-0.171996591668,0.969120008446,-0.172902399645,0.969120008446,-0.172902399645,-0.0308470858707,-0.171996591668
2200000000.0,-0.0337441238112,-0.179639482955,0.966222870457,-0.180588533497,0.966222870457,-0.180588533497,-0.0337441238112,-0.179639482955
2300000000.0,-0.0367566817947,-0.187210016946,0.963210211097,-0.188202322583,0.963210211097,-0.188202322583,-0.0367566817947,-0.187210016946
2400000000.0,-0.0398824017732,-0.194705735574,0.960084388345,-0.195741309097,0.960084388345,-0.195741309097,-0.0398824017732,-0.194705735574
2500000000.0,-0.0431188626424,-0.202124275271,0.956847823241,-0.203203129719,0.956847823241,-0.203203129719,-0.0431188626424,-0.202124275271
2600000000.0,-0.046463584649,-0.209463368621,0.953502995482,-0.210585517271,0.953502995482,-0.210585517271,-0.046463584649,-0.209463368621
2700000000.0,-0.0499140338301,-0.216720845784,0.950052438983,-0.217886302143,0.950052438983,-0.217886302143,-0.0499140338301,-0.216720845784
2800000000.0,-0.0534676264653,-0.223894635689,0.946498737418,-0.225103413484,0.946498737418,-0.225103413484,-0.0534676264653,-0.223894635689
2900000000.0,-0.0571217335345,-0.230982767006,0.942844519767,-0.232234880177,0.942844519767,-0.232234880177,-0.0571217335345,-0.230982767006
3000000000.0,-0.0608736851648,-0.237983368888,0.939092455866,-0.239278831578,0.939092455866,-0.239278831578,-0.0608736851648,-0.237983368888
3100000000.0,-0.0647207750547,-0.244894671495,0.935245251984,-0.246233498045,0.935245251984,-0.246233498045,-0.0647207750547,-0.244894671495
3200000000.0,-0.0686602648651,-0.251715006306,0.93130564643,-0.253097211243,0.93130564643,-0.253097211243,-0.0686602648651,-0.251715006306
3300000000.0,-0.0726893885657,-0.258442806214,0.927276405207,-0.259868404247,0.927276405207,-0.259868404247,-0.0726893885657,-0.258442806214
3400000000.0,-0.0768053567237,-0.265076605423,0.923160317721,-0.266545611434,0.923160317721,-0.266545611434,-0.0768053567237,-0.265076605423
3500000000.0,-0.0810053607272,-0.271615039142,0.918960192562,-0.273127468181,0.918960192562,-0.273127468181,-0.0810053607272,-0.271615039142
3600000000.0,-0.0852865769334,-0.278056843089,0.914678853352,-0.279612710367,0.914678853352,-0.279612710367,-0.0852865769334,-0.278056843089
3700000000.0,-0.0896461707306,-0.284400852815,0.910319134682,-0.286000173696,0.910319134682,-0.286000173696,-0.0896461707306,-0.284400852815
3800000000.0,-0.0940813005071,-0.290646002846,0.905883878147,-0.292288792842,0.905883878147,-0.292288792842,-0.0940813005071,-0.290646002846
3900000000.0,-0.0985891215207,-0.296791325659,0.901375928471,-0.298477600425,0.901375928471,-0.298477600425,-0.0985891215207,-0.296791325659
4000000000.0,-0.103166789658,-0.302835950504,0.896798129753,-0.304565725828,0.896798129753,-0.304565725828,-0.103166789658,-0.302835950504
4100000000.0,-0.107811465081,-0.308779102062,0.892153321816,-0.310552393864,0.892153321816,-0.310552393864,-0.107811465081,-0.308779102062
4200000000.0,-0.112520315751,-0.314620098977,0.887444336685,-0.316436923302,0.887444336685,-0.316436923302,-0.112520315751,-0.314620098977
4300000000.0,-0.117290520834,-0.320358352244,0.882673995183,-0.322218725254,0.882673995183,-0.322218725254,-0.117290520834,-0.320358352244
4400000000.0,-0.122119273963,-0.325993363476,0.877845103664,-0.327897301449,0.877845103664,-0.327897301449,-0.122119273963,-0.325993363476
4500000000.0,-0.127003786385,-0.331524723058,0.87296045087,-0.333472242381,0.87296045087,-0.333472242381,-0.127003786385,-0.331524723058
4600000000.0,-0.131941289954,-0.336952108194,0.868022804936,-0.338943225357,0.868022804936,-0.338943225357,-0.131941289954,-0.336952108194
4700000000.0,-0.13692904,-0.34227528086,0.863034910525,-0.344310012452,0.863034910525,-0.344310012452,-0.13692904,-0.34227528086
4800000000.0,-0.14196431804,-0.347494085665,0.857999486108,-0.34957244837,0.857999486108,-0.34957244837,-0.14196431804,-0.347494085665
4900000000.0,-0.147044434366,-0.352608447638,0.852919221386,-0.354730458229,0.852919221386,-0.354730458229,-0.147044434366,-0.352608447638
5000000000.0,-0.152166730475,-0.357618369945,0.847796774855,-0.359784045283,0.847796774855,-0.359784045283,-0.152166730475,-0.357618369945
5100000000.0,-0.157328581358,-0.362523931544,0.842634771513,-0.364733288569,0.842634771513,-0.364733288569,-0.157328581358,-0.362523931544
5200000000.0,-0.162527397655,-0.36732528479,0.837435800716,-0.36957834052,0.837435800716,-0.36957834052,-0.162527397655,-0.36732528479
5300000000.0,-0.167760627653,-0.372022652992,0.832202414169,-0.374319424517,0.832202414169,-0.374319424517,-0.167760627653,-0.372022652992
5400000000.0,-0.173025759154,-0.376616327936,0.826937124064,-0.378956832417,0.826937124064,-0.378956832417,-0.173025759154,-0.376616327936
5500000000.0,-0.178320321196,-0.381106667385,0.821642401355,-0.383490922046,0.821642401355,-0.383490922046,-0.178320321196,-0.381106667385
5600000000.0,-0.183641885643,-0.385494092544,0.816320674175,-0.387922114672,0.816320674175,-0.387922114672,-0.183641885643,-0.385494092544
5700000000.0,-0.188988068626,-0.389779085531,0.810974326384,-0.39225089247,0.810974326384,-0.39225089247,-0.188988068626,-0.389779085531
5800000000.0,-0.194356531869,-0.39396218682,0.805605696256,-0.39647779597,0.805605696256,-0.39647779597,-0.194356531869,-0.39396218682
5900000000.0,-0.199744983867,-0.398043992701,0.800217075289,-0.400603421511,0.800217075289,-0.400603421511,-0.199744983867,-0.398043992701
6000000000.0,-0.205151180949,-0.402025152735,0.79481070715,-0.404628418701,0.79481070715,-0.404628418701,-0.205151180949,-0.402025152735
6100000000.0,-0.210572928212,-0.405906367222,0.789388786737,-0.408553487886,0.789388786737,-0.408553487886,-0.210572928212,-0.405906367222
6200000000.0,-0.216008080331,-0.40968838469,0.78395345937,-0.412379377634,0.78395345937,-0.412379377634,-0.216008080331,-0.40968838469
6300000000.0,-0.221454542265,-0.413371999403,0.778506820087,-0.416106882246,0.778506820087,-0.416106882246,-0.221454542265,-0.413371999403
6400000000.0,-0.226910269832,-0.416958048893,0.773050913063,-0.419736839292,0.773050913063,-0.419736839292,-0.226910269832,-0.416958048893
6500000000.0,-0.232373270197,-0.42044741153,0.767587731134,-0.423270127171,0.767587731134,-0.423270127171,-0.232373270197,-0.42044741153
6600000000.0,-0.237841602233,-0.42384100412,0.762119215418,-0.426707662719,0.762119215418,-0.426707662719,-0.237841602233,-0.42384100412
6700000000.0,-0.243313376803,-0.427139779546,0.756647255052,-0.430050398845,0.756647255052,-0.430050398845,-0.243313376803,-0.427139779546
6800000000.0,-0.24878675693,-0.430344724451,0.751173687008,-0.433299322216,0.751173687008,-0.433299322216,-0.24878675693,-0.430344724451
6900000000.0,-0.254259957885,-0.433456856964,0.745700296011,-0.436455450983,0.745700296011,-0.436455450983,-0.254259957885,-0.433456856964
7000000000.0,-0.259731247187,-0.436477224478,0.74022881454,-0.439519832557,0.74022881454,-0.439519832557,-0.259731247187,-0.436477224478
7100000000.0,-0.265198944516,-0.439406901477,0.734760922912,-0.442493541436,0.734760922912,-0.442493541436,-0.265198944516,-0.439406901477
7200000000.0,-0.270661421549,-0.442246987413,0.729298249445,-0.445377677087,0.729298249445,-0.445377677087,-0.270661421549,-0.442246987413
7300000000.0,-0.276117101728,-0.44499860464,0.723842370695,-0.448173361877,0.723842370695,-0.448173361877,-0.276117101728,-0.44499860464
7400000000.0,-0.281564459954,-0.447662896412,0.718394811759,-0.450881739066,0.718394811759,-0.450881739066,-0.281564459954,-0.447662896412
7500000000.0,-0.287002022211,-0.450241024922,0.712957046649,-0.453503970856,0.712957046649,-0.453503970856,-0.287002022211,-0.450241024922
7600000000.0,-0.29242836514,-0.452734169416,0.707530498722,-0.456041236495,0.707530498722,-0.456041236495,-0.29242836514,-0.452734169416
7700000000.0,-0.297842115545,-0.455143524358,0.702116541171,-0.458494730452,0.702116541171,-0.458494730452,-0.297842115545,-0.455143524358
7800000000.0,-0.303241949856,-0.457470297659,0.696716497563,-0.460865660638,0.696716497563,-0.460865660638,-0.303241949856,-0.457470297659
7900000000.0,-0.308626593532,-0.459715708968,0.691331642437,-0.463155246699,0.691331642437,-0.463155246699,-0.308626593532,-0.459715708968
8000000000.0,-0.313994820433,-0.461880988018,0.68596320193,-0.465364718366,0.68596320193,-0.465364718366,-0.313994820433,-0.461880988018
8100000000.0,-0.319345452135,-0.463967373043,0.680612354465,-0.467495313866,0.680612354465,-0.467495313866,-0.319345452135,-0.463967373043
8200000000.0,-0.324677357218,-0.465976109245,0.675280231458,-0.469548278397,0.675280231458,-0.469548278397,-0.324677357218,-0.465976109245
8300000000.0,-0.329989450517,-0.467908447337,0.669967918072,-0.47152486266,0.669967918072,-0.47152486266,-0.329989450517,-0.467908447337
8400000000.0,-0.33528069234,-0.46976564213,0.664676453997,-0.473426321457,0.664676453997,-0.473426321457,-0.33528069234,-0.46976564213
8500000000.0,-0.340550087662,-0.471548951193,0.659406834257,-0.475253912344,0.659406834257,-0.475253912344,-0.340550087662,-0.471548951193
8600000000.0,-0.34579668529,-0.473259633565,0.654160010042,-0.477008894347,0.654160010042,-0.477008894347,-0.34579668529,-0.473259633565
8700000000.0,-0.351019577006,-0.474898948531,0.648936889566,-0.478692526736,0.648936889566,-0.478692526736,-0.351019577006,-0.474898948531
8800000000.0,-0.356217896701,-0.476468154453,0.643738338939,-0.480306067853,0.643738338939,-0.480306067853,-0.356217896701,-0.476468154453
8900000000.0,-0.361390819478,-0.477968507654,0.638565183054,-0.481850774008,0.638565183054,-0.481850774008,-0.361390819478,-0.477968507654
9000000000.0,-0.366537560754,-0.479401261371,0.633418206492,-0.483327898414,0.633418206492,-0.483327898414,-0.366537560754,-0.479401261371
9100000000.0,-0.371657375343,-0.480767664747,0.628298154439,-0.484738690194,0.628298154439,-0.484738690194,-0.371657375343,-0.480767664747
9200000000.0,-0.376749556535,-0.482068961886,0.623205733601,-0.48608439343,0.623205733601,-0.48608439343,-0.376749556535,-0.482068961886
9300000000.0,-0.381813435166,-0.483306390956,0.618141613141,-0.487366246267,0.618141613141,-0.487366246267,-0.381813435166,-0.483306390956
9400000000.0,-0.386848378684,-0.484481183352,0.613106425608,-0.488585480074,0.613106425608,-0.488585480074,-0.386848378684,-0.484481183352
9500000000.0,-0.391853790215,-0.485594562892,0.608100767876,-0.489743318643,0.608100767876,-0.489743318643,-0.391853790215,-0.485594562892
9600000000.0,-0.396829107623,-0.48664774508,0.603125202079,-0.490840977451,0.603125202079,-0.490840977451,-0.396829107623,-0.48664774508
9700000000.0,-0.401773802576,-0.487641936401,0.598180256547,-0.491879662954,0.598180256547,-0.491879662954,-0.401773802576,-0.487641936401
9800000000.0,-0.406687379612,-0.488578333671,0.593266426738,-0.49286057194,0.593266426738,-0.49286057194,-0.406687379612,-0.488578333671
9900000000.0,-0.411569375214,-0.489458123429,0.588384176171,-0.493784890916,0.588384176171,-0.493784890916,-0.411569375214,-0.489458123429
10000000000.0,-0.416419356879,-0.490282481366,0.583533937345,-0.494653795542,0.583533937345,-0.494653795542,-0.416419356879,-0.490282481366
