freq (GHz),S11_real,S11_imag,S21_real,S21_imag,S12_real,S12_imag,S22_real,S22_imag
100000000.0,0.0684502185039,0.00336803415144,0.93154635633,-0.00481586079097,0.93154635633,-0.00481586079097,0.0684502185039,0.00336803415144
200000000.0,0.0689215785038,0.00672822561827,0.931070422887,-0.00962388860494,0.931070422887,-0.00962388860494,0.0689215785038,0.00672822561827
300000000.0,0.0693133511965,0.0100831593084,0.93067192774,-0.0144266778958,0.93067192774,-0.0144266778958,0.0693133511965,0.0100831593084
400000000.0,0.0696812890207,0.0134334492734,0.930295117845,-0.0192248512601,0.930295117845,-0.0192248512601,0.0696812890207,0.0134334492734
500000000.0,0.0700468842363,0.0167792516802,0.929918500366,-0.0240185729078,0.929918500366,-0.0240185729078,0.0700468842363,0.0167792516802
600000000.0,0.0704210947248,0.0201205204423,0.929531116839,-0.0288078044699,0.929531116839,-0.0288078044699,0.0704210947248,0.0201205204423
700000000.0,0.0708103813873,0.023457099088,0.929126505762,-0.0335923969545,0.929126505762,-0.0335923969545,0.0708103813873,0.023457099088
800000000.0,0.0712189135366,0.0267887634187,0.928700497192,-0.0383721334594,0.928700497192,-0.0383721334594,0.0712189135366,0.0267887634187
900000000.0,0.071649551647,0.0301152444677,0.928250229988,-0.0431467521657,0.928250229988,-0.0431467521657,0.071649551647,0.0301152444677
1000000000.0,0.0721043458751,0.0334362421374,0.927773653291,-0.0479159599994,0.927773653291,-0.0479159599994,0.0721043458751,0.0334362421374
1100000000.0,0.0725848133894,0.0367514339009,0.927269249186,-0.0526794413512,0.927269249186,-0.0526794413512,0.0725848133894,0.0367514339009
1200000000.0,0.0730921037468,0.0400604806679,0.926735867331,-0.0574368639566,0.926735867331,-0.0574368639566,0.0730921037468,0.0400604806679
1300000000.0,0.0736271030212,0.0433630309164,0.926172620818,-0.0621878830379,0.926172620818,-0.0621878830379,0.0736271030212,0.0433630309164
1400000000.0,0.0741905023019,0.0466587237102,0.925578817682,-0.0669321443306,0.925578817682,-0.0669321443306,0.0741905023019,0.0466587237102
1500000000.0,0.0747828444137,0.0499471909704,0.924953914175,-0.0716692863622,0.924953914175,-0.0716692863622,0.0747828444137,0.0499471909704
1600000000.0,0.0754045567635,0.053228059231,0.92429748192,-0.0763989422139,0.92429748192,-0.0763989422139,0.0754045567635,0.053228059231
1700000000.0,0.0760559750399,0.0565009510281,0.923609184213,-0.0811207409142,0.923609184213,-0.0811207409142,0.0760559750399,0.0565009510281
1800000000.0,0.076737360701,0.0597654860205,0.92288875853,-0.0858343085643,0.92288875853,-0.0858343085643,0.076737360701,0.0597654860205
1900000000.0,0.0774489141334,0.0630212819111,0.922136003372,-0.0905392692629,0.922136003372,-0.0905392692629,0.0774489141334,0.0630212819111
2000000000.0,0.0781907847285,0.0662679552163,0.921350768188,-0.0952352458791,0.921350768188,-0.0952352458791,0.0781907847285,0.0662679552163
2100000000.0,0.0789630787174,0.0695051219192,0.920532945538,-0.099921860708,0.920532945538,-0.099921860708,0.0789630787174,0.0695051219192
2200000000.0,0.0797658653509,0.0727323980295,0.919682464913,-0.104598736034,0.919682464913,-0.104598736034,0.0797658653509,0.0727323980295
2300000000.0,0.0805991818348,0.075949400072,0.918799287801,-0.109265494619,0.918799287801,-0.109265494619,0.0805991818348,0.075949400072
2400000000.0,0.0814630373188,0.0791557455147,0.917883403698,-0.113921760138,0.917883403698,-0.113921760138,0.0814630373188,0.0791557455147
2500000000.0,0.0823574161544,0.0823510531497,0.916934826847,-0.118567157554,0.916934826847,-0.118567157554,0.0823574161544,0.0823510531497
2600000000.0,0.0832822805845,0.0855349434344,0.915953593553,-0.123201313467,0.915953593553,-0.123201313467,0.0832822805845,0.0855349434344
2700000000.0,0.0842375729826,0.0887070387988,0.914939759939,-0.127823856421,0.914939759939,-0.127823856421,0.0842375729826,0.0887070387988
2800000000.0,0.0852232177356,0.0918669639262,0.913893400068,-0.132434417184,0.913893400068,-0.132434417184,0.0852232177356,0.0918669639262
2900000000.0,0.0862391228402,0.0950143460089,0.912814604342,-0.137032629009,0.912814604342,-0.137032629009,0.0862391228402,0.0950143460089
3000000000.0,0.0872851812664,0.0981488149839,0.91170347814,-0.141618127867,0.91170347814,-0.141618127867,0.0872851812664,0.0981488149839
3100000000.0,0.0883612721327,0.101270003751,0.910560140645,-0.146190552668,0.910560140645,-0.146190552668,0.0883612721327,0.101270003751
3200000000.0,0.089467261726,0.104377548377,0.90938472382,-0.150749545465,0.90938472382,-0.150749545465,0.089467261726,0.104377548377
3300000000.0,0.0906030043924,0.107471088279,0.90817737152,-0.15529475164,0.90817737152,-0.15529475164,0.0906030043924,0.107471088279
3400000000.0,0.091768343323,0.110550266408,0.906938238708,-0.159825820088,0.906938238708,-0.159825820088,0.091768343323,0.110550266408
3500000000.0,0.0929631112495,0.11361472941,0.905667490752,-0.164342403374,0.905667490752,-0.164342403374,0.0929631112495,0.11361472941
3600000000.0,0.0941871310657,0.116664127781,0.904365302814,-0.1688441579,0.904365302814,-0.1688441579,0.0941871310657,0.116664127781
3700000000.0,0.0954402163855,0.119698116016,0.90303185928,-0.173330744041,0.90303185928,-0.173330744041,0.0954402163855,0.119698116016
3800000000.0,0.0967221720478,0.122716352746,0.901667353267,-0.177801826292,0.901667353267,-0.177801826292,0.0967221720478,0.122716352746
3900000000.0,0.0980327945757,0.125718500867,0.900271986154,-0.182257073396,0.900271986154,-0.182257073396,0.0980327945757,0.125718500867
4000000000.0,0.0993718725968,0.128704227664,0.898845967168,-0.186696158465,0.898845967168,-0.186696158465,0.0993718725968,0.128704227664
4100000000.0,0.10073918723,0.131673204926,0.897389512995,-0.191118759101,0.897389512995,-0.191118759101,0.10073918723,0.131673204926
4200000000.0,0.102134512444,0.13462510906,0.895902847421,-0.195524557502,0.895902847421,-0.195524557502,0.102134512444,0.13462510906
4300000000.0,0.103557615388,0.13755962119,0.894386200998,-0.199913240572,0.894386200998,-0.199913240572,0.103557615388,0.13755962119
4400000000.0,0.105008256709,0.140476427256,0.892839810738,-0.204284500014,0.892839810738,-0.204284500014,0.105008256709,0.140476427256
4500000000.0,0.106486190838,0.143375218109,0.891263919812,-0.208638032426,0.891263919812,-0.208638032426,0.106486190838,0.143375218109
4600000000.0,0.107991166269,0.146255689596,0.889658777281,-0.212973539387,0.889658777281,-0.212973539387,0.107991166269,0.146255689596
4700000000.0,0.109522925822,0.149117542645,0.88802463783,-0.217290727542,0.88802463783,-0.217290727542,0.109522925822,0.149117542645
4800000000.0,0.111081206889,0.151960483338,0.886361761521,-0.221589308677,0.886361761521,-0.221589308677,0.111081206889,0.151960483338
4900000000.0,0.112665741677,0.154784222988,0.884670413552,-0.225868999796,0.884670413552,-0.225868999796,0.112665741677,0.154784222988
5000000000.0,0.114276257427,0.157588478206,0.882950864035,-0.230129523184,0.882950864035,-0.230129523184,0.114276257427,0.157588478206
5100000000.0,0.115912476644,0.160372970962,0.881203387771,-0.234370606475,0.881203387771,-0.234370606475,0.115912476644,0.160372970962
5200000000.0,0.117574117297,0.163137428648,0.879428264042,-0.238591982711,0.879428264042,-0.238591982711,0.117574117297,0.163137428648
5300000000.0,0.119260893031,0.16588158413,0.877625776407,-0.242793390396,0.877625776407,-0.242793390396,0.119260893031,0.16588158413
5400000000.0,0.120972513362,0.168605175803,0.875796212504,-0.246974573549,0.875796212504,-0.246974573549,0.120972513362,0.168605175803
5500000000.0,0.122708683865,0.171307947633,0.873939863859,-0.25113528175,0.873939863859,-0.25113528175,0.122708683865,0.171307947633
5600000000.0,0.124469106365,0.173989649203,0.872057025699,-0.255275270182,0.872057025699,-0.255275270182,0.124469106365,0.173989649203
5700000000.0,0.126253479117,0.17665003575,0.87014799677,-0.259394299672,0.87014799677,-0.259394299672,0.126253479117,0.17665003575
5800000000.0,0.128061496981,0.179288868206,0.868213079162,-0.263492136729,0.868213079162,-0.263492136729,0.128061496981,0.179288868206
5900000000.0,0.129892851598,0.181905913219,0.866252578134,-0.267568553571,0.866252578134,-0.267568553571,0.129892851598,0.181905913219
6000000000.0,0.131747231555,0.184500943193,0.864266801946,-0.271623328154,0.864266801946,-0.271623328154,0.131747231555,0.184500943193
6100000000.0,0.133624322556,0.187073736304,0.862256061695,-0.275656244201,0.862256061695,-0.275656244201,0.133624322556,0.187073736304
6200000000.0,0.135523807578,0.189624076523,0.860220671148,-0.279667091218,0.860220671148,-0.279667091218,0.135523807578,0.189624076523
6300000000.0,0.137445367033,0.192151753636,0.85816094659,-0.283655664512,0.85816094659,-0.283655664512,0.137445367033,0.192151753636
6400000000.0,0.139388678925,0.194656563253,0.85607720666,-0.287621765211,0.85607720666,-0.287621765211,0.139388678925,0.194656563253
6500000000.0,0.141353419001,0.197138306825,0.853969772205,-0.291565200268,0.853969772205,-0.291565200268,0.141353419001,0.197138306825
6600000000.0,0.143339260901,0.199596791647,0.851838966127,-0.295485782471,0.851838966127,-0.295485782471,0.143339260901,0.199596791647
6700000000.0,0.145345876308,0.202031830864,0.849685113233,-0.299383330449,0.849685113233,-0.299383330449,0.145345876308,0.202031830864
6800000000.0,0.14737293509,0.204443243473,0.847508540092,-0.303257668674,0.847508540092,-0.303257668674,0.14737293509,0.204443243473
6900000000.0,0.149420105448,0.206830854317,0.845309574893,-0.307108627455,0.845309574893,-0.307108627455,0.149420105448,0.206830854317
7000000000.0,0.151487054048,0.209194494087,0.843088547303,-0.310936042939,0.843088547303,-0.310936042939,0.151487054048,0.209194494087
7100000000.0,0.153573446167,0.21153399931,0.84084578833,-0.314739757097,0.84084578833,-0.314739757097,0.153573446167,0.21153399931
7200000000.0,0.155678945823,0.213849212339,0.838581630186,-0.318519617722,0.838581630186,-0.318519617722,0.155678945823,0.213849212339
7300000000.0,0.157803215911,0.216139981341,0.836296406154,-0.322275478407,0.836296406154,-0.322275478407,0.157803215911,0.216139981341
7400000000.0,0.159945918335,0.218406160277,0.833990450461,-0.326007198537,0.833990450461,-0.326007198537,0.159945918335,0.218406160277
7500000000.0,0.162106714132,0.220647608891,0.831664098142,-0.329714643262,0.831664098142,-0.329714643262,0.162106714132,0.220647608891
7600000000.0,0.164285263604,0.222864192681,0.829317684917,-0.333397683486,0.829317684917,-0.333397683486,0.164285263604,0.222864192681
7700000000.0,0.166481226439,0.225055782879,0.826951547069,-0.337056195834,0.826951547069,-0.337056195834,0.166481226439,0.225055782879
7800000000.0,0.168694261836,0.227222256425,0.824566021316,-0.34069006263,0.824566021316,-0.34069006263,0.168694261836,0.227222256425
7900000000.0,0.17092402862,0.229363495936,0.822161444695,-0.344299171872,0.822161444695,-0.344299171872,0.17092402862,0.229363495936
8000000000.0,0.173170185367,0.231479389678,0.819738154444,-0.347883417192,0.819738154444,-0.347883417192,0.173170185367,0.231479389678
8100000000.0,0.175432390514,0.233569831531,0.817296487884,-0.351442697831,0.817296487884,-0.351442697831,0.175432390514,0.233569831531
8200000000.0,0.177710302473,0.235634720954,0.814836782306,-0.354976918603,0.814836782306,-0.354976918603,0.177710302473,0.235634720954
8300000000.0,0.180003579746,0.237673962946,0.812359374862,-0.358485989851,0.812359374862,-0.358485989851,0.180003579746,0.237673962946
8400000000.0,0.18231188103,0.23968746801,0.809864602451,-0.361969827415,0.809864602451,-0.361969827415,0.18231188103,0.23968746801
8500000000.0,0.184634865326,0.241675152108,0.807352801617,-0.365428352587,0.807352801617,-0.365428352587,0.184634865326,0.241675152108
8600000000.0,0.186972192045,0.243636936619,0.804824308441,-0.368861492067,0.804824308441,-0.368861492067,0.186972192045,0.243636936619
8700000000.0,0.189323521107,0.245572748294,0.802279458438,-0.372269177921,0.802279458438,-0.372269177921,0.189323521107,0.245572748294
8800000000.0,0.191688513046,0.247482519207,0.799718586458,-0.375651347529,0.799718586458,-0.375651347529,0.191688513046,0.247482519207
8900000000.0,0.194066829104,0.249366186708,0.797142026588,-0.379007943541,0.797142026588,-0.379007943541,0.194066829104,0.249366186708
9000000000.0,0.19645813133,0.251223693372,0.794550112052,-0.382338913823,0.794550112052,-0.382338913823,0.19645813133,0.251223693372
9100000000.0,0.198862082673,0.253054986947,0.791943175121,-0.385644211406,0.791943175121,-0.385644211406,0.198862082673,0.253054986947
9200000000.0,0.201278347071,0.254860020299,0.78932154702,-0.388923794435,0.78932154702,-0.388923794435,0.201278347071,0.254860020299
9300000000.0,0.203706589548,0.256638751358,0.786685557839,-0.392177626109,0.786685557839,-0.392177626109,0.203706589548,0.256638751358
9400000000.0,0.206146476292,0.258391143063,0.784035536441,-0.395405674629,0.784035536441,-0.395405674629,0.206146476292,0.258391143063
9500000000.0,0.208597674748,0.260117163301,0.781371810383,-0.398607913136,0.781371810383,-0.398607913136,0.208597674748,0.260117163301
9600000000.0,0.211059853694,0.261816784849,0.778694705829,-0.401784319658,0.778694705829,-0.401784319658,0.211059853694,0.261816784849
9700000000.0,0.21353268333,0.263489985316,0.776004547471,-0.404934877042,0.776004547471,-0.404934877042,0.21353268333,0.263489985316
9800000000.0,0.216015835349,0.265136747078,0.773301658448,-0.408059572899,0.773301658448,-0.408059572899,0.216015835349,0.265136747078
9900000000.0,0.218508983016,0.266757057217,0.77058636027,-0.411158399538,0.77058636027,-0.411158399538,0.218508983016,0.266757057217
10000000000.0,0.221011801245,0.268350907459,0.767858972746,-0.414231353905,0.767858972746,-0.414231353905,0.221011801245,0.268350907459
