freq (GHz),S11_real,S11_imag,S21_real,S21_imag,S12_real,S12_imag,S22_real,S22_imag
100000000.0,0.000491095736739,-0.000538781877502,0.99949874871,-0.00289203793861,0.99949874871,-0.00289203793861,0.000491095736739,-0.000538781877502
200000000.0,0.00048811640847,-0.00107760695827,0.999480798707,-0.00578414234304,0.999480798707,-0.00578414234304,0.00048811640847,-0.00107760695827
300000000.0,0.000481155208826,-0.00161647911751,0.999455054382,-0.00867635271853,0.999455054382,-0.00867635271853,0.000481155208826,-0.00161647911751
400000000.0,0.000470639000255,-0.0021553989236,0.999421085784,-0.0115686898105,0.999421085784,-0.0115686898105,0.000470639000255,-0.0021553989236
500000000.0,0.000456731034459,-0.00269436398865,0.999378726073,-0.0144611659114,0.999378726073,-0.0144611659114,0.000456731034459,-0.00269436398865
600000000.0,0.000439513694634,-0.00323336968278,0.999327888893,-0.0173537879281,0.999327888893,-0.0173537879281,0.000439513694634,-0.00323336968278
700000000.0,0.000419034927099,-0.0037724095896,0.999268522018,-0.020246558875,0.999268522018,-0.020246558875,0.000419034927099,-0.0037724095896
800000000.0,0.000395325185644,-0.00431147581175,0.999200590474,-0.0231394787471,0.999200590474,-0.0231394787471,0.000395325185644,-0.00431147581175
900000000.0,0.000368404978962,-0.00485055918814,0.999124069041,-0.026032545089,0.999124069041,-0.026032545089,0.000368404978962,-0.00485055918814
1000000000.0,0.000338288700079,-0.0053896494558,0.999038938465,-0.0289257533916,0.999038938465,-0.0289257533916,0.00033828870008,-0.0053896494558
1100000000.0,0.000304986758824,-0.00592873537539,0.998945183366,-0.0318190973845,0.998945183366,-0.0318190973845,0.000304986758824,-0.00592873537539
1200000000.0,0.000268506855821,-0.00646780483101,0.998842790995,-0.0347125692592,0.998842790995,-0.0347125692592,0.000268506855821,-0.00646780483101
1300000000.0,0.000228854786973,-0.00700684491197,0.998731750458,-0.0376061598448,0.998731750458,-0.0376061598448,0.000228854786972,-0.00700684491197
1400000000.0,0.000186034974789,-0.00754584198094,0.998612052212,-0.0404998587507,0.998612052212,-0.0404998587507,0.000186034974789,-0.00754584198094
1500000000.0,0.000140050832672,-0.00808478173181,0.998483687722,-0.0433936544828,0.998483687722,-0.0433936544828,0.000140050832672,-0.00808478173181
1600000000.0,9.09050227116e-05,-0.00862364923948,0.998346649229,-0.0462875345423,0.998346649229,-0.0462875345423,9.09050227116e-05,-0.00862364923948
1700000000.0,3.85996431607e-05,-0.00916242900334,0.998200929578,-0.0491814855087,0.998200929578,-0.0491814855087,3.85996431607e-05,-0.00916242900334
1800000000.0,-1.68636319325e-05,-0.00970110498555,0.998046522098,-0.0520754931121,0.998046522098,-0.0520754931121,-1.68636319322e-05,-0.00970110498555
1900000000.0,-7.54834465132e-05,-0.0102396606452,0.997883420514,-0.054969542295,0.997883420514,-0.054969542295,-7.54834465132e-05,-0.0102396606452
2000000000.0,-0.000137258680207,-0.0107780789687,0.997711618878,-0.0578636172678,0.997711618878,-0.0578636172678,-0.000137258680207,-0.0107780789687
2100000000.0,-0.000202188383427,-0.0113163424977,0.997531111522,-0.0607577015573,0.997531111522,-0.0607577015573,-0.000202188383427,-0.0113163424977
2200000000.0,-0.000270271725435,-0.0118544333542,0.997341893016,-0.0636517780499,0.997341893016,-0.0636517780499,-0.000270271725435,-0.0118544333542
2300000000.0,-0.000341507952187,-0.0123923332635,0.99714395814,-0.0665458290309,0.99714395814,-0.0665458290309,-0.000341507952187,-0.0123923332635
2400000000.0,-0.000415896351678,-0.0129300235754,0.996937301864,-0.0694398362196,0.996937301864,-0.0694398362196,-0.000415896351678,-0.0129300235754
2500000000.0,-0.000493436225122,-0.013467485284,0.996721919326,-0.0723337808014,0.996721919326,-0.0723337808014,-0.000493436225122,-0.013467485284
2600000000.0,-0.000574126862727,-0.0140046990457,0.996497805822,-0.075227643457,0.996497805822,-0.075227643457,-0.000574126862728,-0.0140046990457
2700000000.0,-0.00065796752312,-0.0145416451964,0.996264956794,-0.0781214043896,0.996264956794,-0.0781214043896,-0.00065796752312,-0.0145416451964
2800000000.0,-0.000744957415732,-0.0150783037672,0.996023367821,-0.0810150433489,0.996023367821,-0.0810150433489,-0.000744957415732,-0.0150783037672
2900000000.0,-0.000835095685569,-0.0156146544993,0.995773034614,-0.0839085396547,0.995773034614,-0.0839085396547,-0.000835095685569,-0.0156146544993
3000000000.0,-0.000928381399965,-0.0161506768583,0.995513953012,-0.0868018722178,0.995513953012,-0.0868018722178,-0.000928381399964,-0.0161506768583
3100000000.0,-0.00102481353695,-0.016686350047,0.995246118975,-0.0896950195598,0.995246118975,-0.0896950195598,-0.00102481353695,-0.016686350047
3200000000.0,-0.00112439097503,-0.0172216530183,0.994969528587,-0.0925879598313,0.994969528587,-0.0925879598313,-0.00112439097503,-0.0172216530183
3300000000.0,-0.00122711248402,-0.0177565644871,0.994684178048,-0.0954806708295,0.994684178048,-0.0954806708295,-0.00122711248402,-0.0177565644871
3400000000.0,-0.00133297671699,-0.0182910629414,0.994390063675,-0.0983731300142,0.994390063675,-0.0983731300142,-0.00133297671699,-0.0182910629414
3500000000.0,-0.00144198220292,-0.0188251266529,0.994087181904,-0.101265314523,0.994087181904,-0.101265314523,-0.00144198220292,-0.0188251266529
3600000000.0,-0.00155412734016,-0.0193587336879,0.993775529285,-0.104157201185,0.993775529285,-0.104157201185,-0.00155412734016,-0.0193587336879
3700000000.0,-0.00166941039047,-0.0198918619163,0.993455102485,-0.107048766537,0.993455102485,-0.107048766537,-0.00166941039047,-0.0198918619163
3800000000.0,-0.00178782947362,-0.0204244890216,0.993125898287,-0.109939986831,0.993125898287,-0.109939986831,-0.00178782947362,-0.0204244890216
3900000000.0,-0.00190938256248,-0.0209565925097,0.99278791359,-0.112830838053,0.99278791359,-0.112830838053,-0.00190938256248,-0.0209565925097
4000000000.0,-0.00203406747849,-0.0214881497175,0.99244114541,-0.115721295928,0.99244114541,-0.115721295928,-0.00203406747849,-0.0214881497175
4100000000.0,-0.00216188188758,-0.0220191378211,0.992085590881,-0.118611335937,0.992085590881,-0.118611335937,-0.00216188188758,-0.0220191378211
4200000000.0,-0.00229282329633,-0.0225495338439,0.991721247256,-0.121500933323,0.991721247256,-0.121500933323,-0.00229282329633,-0.0225495338439
4300000000.0,-0.00242688904849,-0.0230793146646,0.991348111904,-0.124390063101,0.991348111904,-0.124390063101,-0.00242688904849,-0.0230793146646
4400000000.0,-0.00256407632177,-0.0236084570239,0.990966182316,-0.127278700072,0.990966182316,-0.127278700072,-0.00256407632177,-0.0236084570239
4500000000.0,-0.00270438212484,-0.0241369375324,0.990575456102,-0.130166818826,0.990575456102,-0.130166818826,-0.00270438212484,-0.0241369375324
4600000000.0,-0.00284780329461,-0.0246647326771,0.990175930997,-0.133054393755,0.990175930997,-0.133054393755,-0.00284780329461,-0.0246647326771
4700000000.0,-0.00299433649362,-0.0251918188281,0.989767604854,-0.135941399061,0.989767604854,-0.135941399061,-0.00299433649362,-0.0251918188281
4800000000.0,-0.0031439782077,-0.0257181722454,0.98935047565,-0.13882780876,0.98935047565,-0.13882780876,-0.0031439782077,-0.0257181722454
4900000000.0,-0.00329672474376,-0.0262437690848,0.988924541489,-0.141713596696,0.988924541489,-0.141713596696,-0.00329672474376,-0.0262437690848
5000000000.0,-0.00345257222777,-0.0267685854042,0.988489800596,-0.14459873654,0.988489800596,-0.14459873654,-0.00345257222777,-0.0267685854042
5100000000.0,-0.0036115166028,-0.0272925971695,0.988046251323,-0.147483201808,0.988046251323,-0.147483201808,-0.0036115166028,-0.0272925971695
5200000000.0,-0.00377355362734,-0.0278157802604,0.987593892151,-0.150366965856,0.987593892151,-0.150366965856,-0.00377355362734,-0.0278157802604
5300000000.0,-0.00393867887357,-0.0283381104757,0.987132721685,-0.153250001896,0.987132721685,-0.153250001896,-0.00393867887357,-0.0283381104757
5400000000.0,-0.00410688772592,-0.028859563539,0.986662738659,-0.156132282996,0.986662738659,-0.156132282996,-0.00410688772592,-0.028859563539
5500000000.0,-0.00427817537958,-0.0293801151041,0.986183941936,-0.15901378209,0.986183941936,-0.15901378209,-0.00427817537958,-0.0293801151041
5600000000.0,-0.00445253683926,-0.0298997407596,0.985696330509,-0.161894471982,0.985696330509,-0.161894471982,-0.00445253683926,-0.0298997407596
5700000000.0,-0.00462996691793,-0.0304184160344,0.9851999035,-0.164774325352,0.9851999035,-0.164774325352,-0.00462996691793,-0.0304184160344
5800000000.0,-0.00481046023568,-0.0309361164026,0.984694660164,-0.167653314761,0.984694660164,-0.167653314761,-0.00481046023568,-0.0309361164026
5900000000.0,-0.00499401121876,-0.0314528172878,0.984180599884,-0.170531412658,0.984180599884,-0.170531412658,-0.00499401121876,-0.0314528172878
6000000000.0,-0.00518061409853,-0.0319684940683,0.983657722178,-0.173408591383,0.983657722178,-0.173408591383,-0.00518061409853,-0.0319684940683
6100000000.0,-0.00537026291064,-0.0324831220812,0.983126026695,-0.176284823172,0.983126026695,-0.176284823172,-0.00537026291064,-0.0324831220812
6200000000.0,-0.00556295149423,-0.0329966766272,0.982585513217,-0.179160080164,0.982585513217,-0.179160080164,-0.00556295149423,-0.0329966766272
6300000000.0,-0.00575867349112,-0.0335091329745,0.98203618166,-0.182034334405,0.98203618166,-0.182034334405,-0.00575867349112,-0.0335091329745
6400000000.0,-0.00595742234523,-0.0340204663635,0.981478032075,-0.184907557848,0.981478032075,-0.184907557848,-0.00595742234523,-0.0340204663635
6500000000.0,-0.00615919130192,-0.0345306520107,0.980911064645,-0.187779722365,0.980911064645,-0.187779722365,-0.00615919130192,-0.0345306520107
6600000000.0,-0.00636397340745,-0.0350396651127,0.980335279689,-0.190650799746,0.980335279689,-0.190650799746,-0.00636397340744,-0.0350396651127
6700000000.0,-0.00657176150848,-0.0355474808502,0.979750677661,-0.193520761703,0.979750677661,-0.193520761703,-0.00657176150848,-0.0355474808502
6800000000.0,-0.00678254825169,-0.0360540743923,0.97915725915,-0.196389579878,0.97915725915,-0.196389579878,-0.00678254825169,-0.0360540743923
6900000000.0,-0.00699632608333,-0.0365594208996,0.978555024881,-0.199257225842,0.978555024881,-0.199257225842,-0.00699632608333,-0.0365594208996
7000000000.0,-0.00721308724894,-0.0370634955284,0.977943975715,-0.202123671101,0.977943975715,-0.202123671101,-0.00721308724894,-0.0370634955284
7100000000.0,-0.00743282379305,-0.0375662734343,0.977324112649,-0.204988887101,0.977324112649,-0.204988887101,-0.00743282379305,-0.0375662734343
7200000000.0,-0.00765552755894,-0.0380677297758,0.976695436814,-0.20785284523,0.976695436814,-0.20785284523,-0.00765552755894,-0.0380677297758
7300000000.0,-0.00788119018848,-0.0385678397178,0.976057949482,-0.210715516821,0.976057949482,-0.210715516821,-0.00788119018847,-0.0385678397178
7400000000.0,-0.00810980312195,-0.039066578435,0.975411652058,-0.213576873155,0.975411652058,-0.213576873155,-0.00810980312195,-0.039066578435
7500000000.0,-0.008341357598,-0.0395639211154,0.974756546084,-0.216436885468,0.974756546084,-0.216436885468,-0.008341357598,-0.0395639211154
7600000000.0,-0.00857584465351,-0.0400598429635,0.974092633239,-0.21929552495,0.974092633239,-0.21929552495,-0.00857584465351,-0.0400598429635
7700000000.0,-0.00881325512365,-0.0405543192038,0.97341991534,-0.222152762747,0.97341991534,-0.222152762747,-0.00881325512365,-0.0405543192038
7800000000.0,-0.00905357964186,-0.0410473250839,0.972738394339,-0.225008569972,0.972738394339,-0.225008569972,-0.00905357964186,-0.0410473250839
7900000000.0,-0.00929680863989,-0.0415388358777,0.972048072325,-0.227862917697,0.972048072325,-0.227862917697,-0.00929680863989,-0.0415388358777
8000000000.0,-0.00954293234796,-0.0420288268885,0.971348951525,-0.230715776965,0.971348951525,-0.230715776965,-0.00954293234796,-0.0420288268885
8100000000.0,-0.00979194079482,-0.0425172734521,0.970641034301,-0.233567118788,0.970641034301,-0.233567118788,-0.00979194079482,-0.0425172734521
8200000000.0,-0.0100438238079,-0.0430041509398,0.969924323152,-0.23641691415,0.969924323152,-0.23641691415,-0.0100438238079,-0.0430041509398
8300000000.0,-0.0102985710137,-0.0434894347615,0.969198820714,-0.239265134012,0.969198820714,-0.239265134012,-0.0102985710137,-0.0434894347615
8400000000.0,-0.0105561718378,-0.0439731003682,0.968464529758,-0.242111749312,0.968464529758,-0.242111749312,-0.0105561718378,-0.0439731003682
8500000000.0,-0.010816615505,-0.0444551232556,0.967721453194,-0.24495673097,0.967721453194,-0.24495673097,-0.010816615505,-0.0444551232556
8600000000.0,-0.0110798910401,-0.0449354789664,0.966969594063,-0.247800049887,0.966969594063,-0.247800049887,-0.0110798910401,-0.0449354789664
8700000000.0,-0.0113459872679,-0.0454141430933,0.966208955546,-0.250641676951,0.966208955546,-0.250641676951,-0.0113459872679,-0.0454141430933
8800000000.0,-0.0116148928133,-0.0458910912815,0.965439540959,-0.253481583038,0.965439540959,-0.253481583038,-0.0116148928133,-0.0458910912815
8900000000.0,-0.0118865961023,-0.0463662992319,0.96466135375,-0.256319739014,0.96466135375,-0.256319739014,-0.0118865961023,-0.0463662992319
9000000000.0,-0.0121610853619,-0.0468397427035,0.963874397506,-0.259156115737,0.963874397506,-0.259156115737,-0.0121610853619,-0.0468397427035
9100000000.0,-0.0124383486208,-0.047311397516,0.963078675946,-0.261990684059,0.963078675946,-0.261990684059,-0.0124383486208,-0.047311397516
9200000000.0,-0.0127183737097,-0.0477812395525,0.962274192926,-0.264823414831,0.962274192926,-0.264823414831,-0.0127183737097,-0.0477812395525
9300000000.0,-0.013001148262,-0.0482492447621,0.961460952432,-0.2676542789,0.961460952432,-0.2676542789,-0.013001148262,-0.0482492447621
9400000000.0,-0.013286659714,-0.0487153891626,0.960638958588,-0.270483247116,0.960638958588,-0.270483247116,-0.013286659714,-0.0487153891626
9500000000.0,-0.0135748953058,-0.0491796488424,0.959808215649,-0.273310290331,0.959808215649,-0.273310290331,-0.0135748953058,-0.0491796488424
9600000000.0,-0.0138658420817,-0.0496419999638,0.958968728003,-0.276135379402,0.958968728003,-0.276135379402,-0.0138658420817,-0.0496419999638
9700000000.0,-0.0141594868906,-0.050102418765,0.958120500172,-0.278958485193,0.958120500172,-0.278958485193,-0.0141594868906,-0.050102418765
9800000000.0,-0.0144558163871,-0.0505608815623,0.957263536809,-0.281779578577,0.957263536809,-0.281779578577,-0.0144558163871,-0.0505608815623
9900000000.0,-0.0147548170316,-0.0510173647531,0.956397842698,-0.284598630435,0.956397842698,-0.284598630435,-0.0147548170316,-0.0510173647531
10000000000.0,-0.0150564750913,-0.0514718448177,0.955523422757,-0.287415611663,0.955523422757,-0.287415611663,-0.0150564750913,-0.0514718448177
