freq (GHz),S11_real,S11_imag,S21_real,S21_imag,S12_real,S12_imag,S22_real,S22_imag
100000000.0,0.0124578035519,0.0013805700659,0.987539454662,-0.00253250513954,0.987539454662,-0.00253250513954,0.0124578035519,0.0013805700659
200000000.0,0.0125494256201,0.00276045383532,0.987444758183,-0.00506432534674,0.987444758183,-0.00506432534674,0.0125494256201,0.00276045383532
300000000.0,0.0126262355045,0.0041398707909,0.987363541168,-0.00759568226358,0.987363541168,-0.00759568226358,0.0126262355045,0.0041398707909
400000000.0,0.012698951417,0.00551887015791,0.987285085317,-0.0101266268697,0.987285085317,-0.0101266268697,0.012698951417,0.00551887015791
500000000.0,0.0127717056941,0.00689746163061,0.987205258203,-0.0126571704116,0.987205258203,-0.0126571704116,0.0127717056941,0.00689746163061
600000000.0,0.0128466074856,0.00827563742737,0.98712195058,-0.0151873065292,0.98712195058,-0.0151873065292,0.0128466074856,0.00827563742737
700000000.0,0.0129249032717,0.00965338020478,0.987033915864,-0.0177170192055,0.987033915864,-0.0177170192055,0.0129249032717,0.00965338020478
800000000.0,0.0130074006218,0.0110306667251,0.986940346373,-0.0202462864559,0.986940346373,-0.0202462864559,0.0130074006218,0.0110306667251
900000000.0,0.0130946569617,0.0124074698242,0.986840684563,-0.0227750823106,0.986840684563,-0.0227750823106,0.0130946569617,0.0124074698242
1000000000.0,0.0131870752982,0.0137837595765,0.986734527297,-0.0253033779886,0.986734527297,-0.0253033779886,0.0131870752982,0.0137837595765
1100000000.0,0.0132849574545,0.0151595040338,0.986621572616,-0.0278311426447,0.986621572616,-0.0278311426447,0.0132849574545,0.0151595040338
1200000000.0,0.0133885358048,0.0165346697205,0.986501587999,-0.0303583438696,0.986501587999,-0.0303583438696,0.0133885358048,0.0165346697205
1300000000.0,0.0134979932487,0.0179092219791,0.986374390391,-0.0328849480405,0.986374390391,-0.0328849480405,0.0134979932487,0.0179092219791
1400000000.0,0.0136134763458,0.0192831252203,0.98623983307,-0.0354109205738,0.98623983307,-0.0354109205738,0.0136134763458,0.0192831252203
1500000000.0,0.013735104269,0.0206563431085,0.986097796688,-0.0379362261142,0.986097796688,-0.0379362261142,0.013735104269,0.0206563431085
1600000000.0,0.0138629750962,0.0220288387035,0.985948182987,-0.040460828678,0.985948182987,-0.040460828678,0.0138629750962,0.0220288387035
1700000000.0,0.0139971703452,0.0234005745701,0.985790910258,-0.0429846917658,0.985790910258,-0.0429846917658,0.0139971703452,0.0234005745701
1800000000.0,0.0141377583171,0.0247715128657,0.985625910001,-0.0455077784506,0.985625910001,-0.0455077784506,0.0141377583171,0.0247715128657
1900000000.0,0.0142847966085,0.0261416154099,0.98545312441,-0.0480300514497,0.98545312441,-0.0480300514497,0.0142847966085,0.0261416154099
2000000000.0,0.014438334032,0.0275108437421,0.985272504455,-0.0505514731829,0.985272504455,-0.0505514731829,0.014438334032,0.0275108437421
2100000000.0,0.0145984121061,0.0288791591681,0.985084008392,-0.0530720058211,0.985084008392,-0.0530720058211,0.0145984121061,0.0288791591681
2200000000.0,0.0147650662275,0.0302465228003,0.98488760059,-0.0555916113263,0.98488760059,-0.0555916113263,0.0147650662275,0.0302465228003
2300000000.0,0.0149383266038,0.0316128955905,0.984683250596,-0.0581102514865,0.984683250596,-0.0581102514865,0.0149383266038,0.0316128955905
2400000000.0,0.0151182190044,0.032978238359,0.984470932389,-0.0606278879443,0.984470932389,-0.0606278879443,0.0151182190044,0.032978238359
2500000000.0,0.0153047653708,0.0343425118182,0.984250623766,-0.0631444822227,0.984250623766,-0.0631444822227,0.0153047653708,0.0343425118182
2600000000.0,0.0154979843172,0.0357056765951,0.984022305844,-0.0656599957466,0.984022305844,-0.0656599957466,0.0154979843172,0.0357056765951
2700000000.0,0.0156978915444,0.037067693249,0.983785962642,-0.0681743898622,0.983785962642,-0.0681743898622,0.0156978915444,0.037067693249
2800000000.0,0.0159045001851,0.0384285222882,0.983541580742,-0.070687625854,0.983541580742,-0.070687625854,0.0159045001851,0.0384285222882
2900000000.0,0.0161178210932,0.0397881241851,0.983289148992,-0.0731996649599,0.983289148992,-0.0731996649599,0.0161178210932,0.0397881241851
3000000000.0,0.0163378630885,0.0411464593885,0.98302865827,-0.0757104683844,0.98302865827,-0.0757104683844,0.0163378630885,0.0411464593885
3100000000.0,0.0165646331648,0.042503488336,0.982760101268,-0.0782199973112,0.982760101268,-0.0782199973112,0.0165646331648,0.042503488336
3200000000.0,0.0167981366676,0.0438591714643,0.98248347232,-0.080728212914,0.98248347232,-0.080728212914,0.0167981366676,0.0438591714643
3300000000.0,0.0170383774468,0.045213469219,0.982198767245,-0.0832350763663,0.982198767245,-0.0832350763663,0.0170383774468,0.045213469219
3400000000.0,0.0172853579889,0.0465663420633,0.981905983218,-0.085740548851,0.981905983218,-0.085740548851,0.0172853579889,0.0465663420633
3500000000.0,0.0175390795313,0.0479177504865,0.981605118656,-0.0882445915684,0.981605118656,-0.0882445915684,0.0175390795313,0.0479177504865
3600000000.0,0.0177995421623,0.0492676550112,0.981296173114,-0.0907471657444,0.981296173114,-0.0907471657444,0.0177995421623,0.0492676550112
3700000000.0,0.0180667449083,0.0506160162004,0.980979147202,-0.0932482326375,0.980979147202,-0.0932482326375,0.0180667449083,0.0506160162004
3800000000.0,0.0183406858109,0.051962794664,0.980654042507,-0.0957477535453,0.980654042507,-0.0957477535453,0.0183406858109,0.051962794664
3900000000.0,0.0186213619945,0.053307951065,0.980320861523,-0.0982456898114,0.980320861523,-0.0982456898114,0.0186213619945,0.053307951065
4000000000.0,0.0189087697261,0.0546514461249,0.979979607595,-0.100742002831,0.979979607595,-0.100742002831,0.0189087697261,0.0546514461249
4100000000.0,0.0192029044692,0.0559932406294,0.979630284861,-0.103236654056,0.979630284861,-0.103236654056,0.0192029044692,0.0559932406294
4200000000.0,0.0195037609309,0.0573332954335,0.97927289821,-0.105729605001,0.97927289821,-0.105729605001,0.0195037609309,0.0573332954335
4300000000.0,0.0198113331045,0.0586715714661,0.978907453234,-0.108220817248,0.978907453234,-0.108220817248,0.0198113331045,0.0586715714661
4400000000.0,0.0201256143077,0.0600080297347,0.978533956192,-0.110710252452,0.978533956192,-0.110710252452,0.0201256143077,0.0600080297347
4500000000.0,0.0204465972172,0.0613426313299,0.978152413979,-0.113197872343,0.978152413979,-0.113197872343,0.0204465972172,0.0613426313299
4600000000.0,0.0207742738992,0.0626753374294,0.977762834089,-0.115683638734,0.977762834089,-0.115683638734,0.0207742738992,0.0626753374294
4700000000.0,0.021108635838,0.064006109302,0.977365224591,-0.118167513521,0.977365224591,-0.118167513521,0.021108635838,0.064006109302
4800000000.0,0.0214496739609,0.0653349083118,0.976959594102,-0.120649458692,0.976959594102,-0.120649458692,0.0214496739609,0.0653349083118
4900000000.0,0.0217973786621,0.0666616959216,0.976545951766,-0.123129436324,0.976545951766,-0.123129436324,0.0217973786621,0.0666616959216
5000000000.0,0.0221517398231,0.0679864336963,0.976124307229,-0.125607408595,0.976124307229,-0.125607408595,0.0221517398231,0.0679864336963
5100000000.0,0.0225127468327,0.0693090833069,0.975694670622,-0.12808333778,0.975694670622,-0.12808333778,0.0225127468327,0.0693090833069
5200000000.0,0.0228803886043,0.0706296065334,0.975257052546,-0.13055718626,0.975257052546,-0.13055718626,0.0228803886043,0.0706296065334
5300000000.0,0.0232546535925,0.0719479652682,0.974811464048,-0.133028916521,0.974811464048,-0.133028916521,0.0232546535925,0.0719479652682
5400000000.0,0.0236355298079,0.0732641215192,0.974357916615,-0.13549849116,0.974357916615,-0.13549849116,0.0236355298079,0.0732641215192
5500000000.0,0.0240230048314,0.0745780374129,0.973896422154,-0.137965872889,0.973896422154,-0.137965872889,0.0240230048314,0.0745780374129
5600000000.0,0.0244170658266,0.0758896751973,0.973426992981,-0.140431024534,0.973426992981,-0.140431024534,0.0244170658266,0.0758896751973
5700000000.0,0.024817699552,0.0771989972449,0.972949641808,-0.142893909041,0.972949641808,-0.142893909041,0.024817699552,0.0771989972449
5800000000.0,0.0252248923723,0.0785059660555,0.972464381736,-0.14535448948,0.972464381736,-0.14535448948,0.0252248923723,0.0785059660555
5900000000.0,0.0256386302683,0.0798105442587,0.971971226238,-0.147812729044,0.971971226238,-0.147812729044,0.0256386302683,0.0798105442587
6000000000.0,0.026058898847,0.0811126946171,0.971470189156,-0.150268591055,0.971470189156,-0.150268591055,0.026058898847,0.0811126946171
6100000000.0,0.0264856833506,0.0824123800284,0.970961284687,-0.152722038965,0.970961284687,-0.152722038965,0.0264856833506,0.0824123800284
6200000000.0,0.026918968665,0.0837095635281,0.970444527376,-0.155173036359,0.970444527376,-0.155173036359,0.026918968665,0.0837095635281
6300000000.0,0.0273587393275,0.0850042082924,0.96991993211,-0.15762154696,0.96991993211,-0.15762154696,0.0273587393275,0.0850042082924
6400000000.0,0.0278049795351,0.08629627764,0.969387514107,-0.160067534626,0.969387514107,-0.160067534626,0.0278049795351,0.08629627764
6500000000.0,0.0282576731509,0.0875857350351,0.968847288912,-0.162510963358,0.968847288912,-0.162510963358,0.0282576731509,0.0875857350351
6600000000.0,0.0287168037112,0.0888725440894,0.968299272388,-0.1649517973,0.968299272388,-0.1649517973,0.0287168037112,0.0888725440894
6700000000.0,0.0291823544321,0.0901566685646,0.96774348071,-0.167390000739,0.96774348071,-0.167390000739,0.0291823544321,0.0901566685646
6800000000.0,0.0296543082153,0.0914380723746,0.967179930361,-0.169825538114,0.967179930361,-0.169825538114,0.0296543082153,0.0914380723746
6900000000.0,0.0301326476539,0.0927167195875,0.966608638123,-0.17225837401,0.966608638123,-0.17225837401,0.0301326476539,0.0927167195875
7000000000.0,0.0306173550382,0.0939925744284,0.966029621073,-0.174688473168,0.966029621073,-0.174688473168,0.0306173550382,0.0939925744284
7100000000.0,0.031108412361,0.0952656012807,0.965442896579,-0.177115800481,0.965442896579,-0.177115800481,0.031108412361,0.0952656012807
7200000000.0,0.0316058013223,0.0965357646891,0.964848482293,-0.179540320998,0.964848482293,-0.179540320998,0.0316058013223,0.0965357646891
7300000000.0,0.0321095033347,0.0978030293609,0.964246396146,-0.181961999931,0.964246396146,-0.181961999931,0.0321095033347,0.0978030293609
7400000000.0,0.0326194995278,0.0990673601685,0.963636656344,-0.184380802647,0.963636656344,-0.184380802647,0.0326194995278,0.0990673601685
7500000000.0,0.0331357707527,0.100328722151,0.963019281365,-0.186796694681,0.963019281365,-0.186796694681,0.0331357707527,0.100328722151
7600000000.0,0.0336582975867,0.101587080517,0.962394289952,-0.18920964173,0.962394289952,-0.18920964173,0.0336582975867,0.101587080517
7700000000.0,0.0341870603369,0.102842400646,0.961761701109,-0.191619609658,0.961761701109,-0.191619609658,0.0341870603369,0.102842400646
7800000000.0,0.0347220390449,0.104094648088,0.961121534101,-0.194026564499,0.961121534101,-0.194026564499,0.0347220390449,0.104094648088
7900000000.0,0.0352632134906,0.105343788571,0.960473808443,-0.196430472457,0.960473808443,-0.196430472457,0.0352632134906,0.105343788571
8000000000.0,0.0358105631958,0.106589787998,0.959818543903,-0.198831299908,0.959818543903,-0.198831299908,0.0358105631958,0.106589787998
8100000000.0,0.0363640674282,0.107832612449,0.959155760494,-0.201229013403,0.959155760494,-0.201229013403,0.0363640674282,0.107832612449
8200000000.0,0.0369237052051,0.109072228185,0.958485478472,-0.203623579668,0.958485478472,-0.203623579668,0.0369237052051,0.109072228185
8300000000.0,0.0374894552965,0.110308601649,0.957807718332,-0.206014965608,0.957807718332,-0.206014965608,0.0374894552965,0.110308601649
8400000000.0,0.0380612962291,0.111541699468,0.957122500805,-0.208403138308,0.957122500805,-0.208403138308,0.0380612962291,0.111541699468
8500000000.0,0.0386392062897,0.112771488452,0.956429846854,-0.210788065033,0.956429846854,-0.210788065033,0.0386392062897,0.112771488452
8600000000.0,0.0392231635278,0.113997935599,0.955729777671,-0.213169713231,0.955729777671,-0.213169713231,0.0392231635278,0.113997935599
8700000000.0,0.03981314576,0.115221008096,0.955022314673,-0.215548050536,0.955022314673,-0.215548050536,0.03981314576,0.115221008096
8800000000.0,0.040409130572,0.116440673319,0.954307479501,-0.217923044767,0.954307479501,-0.217923044767,0.040409130572,0.116440673319
8900000000.0,0.0410110953226,0.117656898835,0.953585294014,-0.220294663931,0.953585294014,-0.220294663931,0.0410110953226,0.117656898835
9000000000.0,0.0416190171465,0.118869652406,0.952855780288,-0.222662876224,0.952855780288,-0.222662876224,0.0416190171465,0.118869652406
9100000000.0,0.0422328729573,0.120078901986,0.952118960612,-0.225027650034,0.952118960612,-0.225027650034,0.0422328729573,0.120078901986
9200000000.0,0.0428526394504,0.121284615728,0.951374857486,-0.227388953939,0.951374857486,-0.227388953939,0.0428526394504,0.121284615728
9300000000.0,0.0434782931063,0.122486761979,0.950623493616,-0.229746756715,0.950623493616,-0.229746756715,0.0434782931063,0.122486761979
9400000000.0,0.0441098101931,0.123685309288,0.949864891913,-0.232101027328,0.949864891913,-0.232101027328,0.0441098101931,0.123685309288
9500000000.0,0.0447471667697,0.124880226402,0.94909907549,-0.234451734944,0.94909907549,-0.234451734944,0.0447471667697,0.124880226402
9600000000.0,0.0453903386882,0.126071482271,0.948326067658,-0.236798848927,0.948326067658,-0.236798848927,0.0453903386882,0.126071482271
9700000000.0,0.0460393015973,0.127259046047,0.947545891925,-0.239142338838,0.947545891925,-0.239142338838,0.0460393015973,0.127259046047
9800000000.0,0.0466940309446,0.128442887087,0.946758571991,-0.241482174442,0.946758571991,-0.241482174442,0.0466940309446,0.128442887087
9900000000.0,0.0473545019796,0.129622974954,0.945964131747,-0.243818325704,0.945964131747,-0.243818325704,0.0473545019796,0.129622974954
10000000000.0,0.0480206897562,0.130799279416,0.945162595272,-0.246150762792,0.945162595272,-0.246150762792,0.0480206897562,0.130799279416
