freq (GHz),S11_real,S11_imag,S21_real,S21_imag,S12_real,S12_imag,S22_real,S22_imag
100000000.0,0.00290583183968,0.000161021416293,0.99707766381,-0.00486087765924,0.99707766381,-0.00486087765924,0.00290583183968,0.000161021416293
200000000.0,0.00292544168711,0.000321837804874,0.997020438805,-0.00972146818577,0.997020438805,-0.00972146818577,0.00292544168711,0.000321837804874
300000000.0,0.00294155881989,0.000482503211359,0.996944595093,-0.0145817561377,0.996944595093,-0.0145817561377,0.00294155881989,0.000482503211359
400000000.0,0.00295669647583,0.000643022732653,0.996847618881,-0.019441670035,0.996847618881,-0.019441670035,0.00295669647583,0.000643022732653
500000000.0,0.00297182079432,0.000803390669457,0.996728543571,-0.0243011240155,0.996728543571,-0.0243011240155,0.00297182079432,0.000803390669457
600000000.0,0.00298742322747,0.000963596784545,0.996586877379,-0.0291600253244,0.996586877379,-0.0291600253244,0.00298742322747,0.000963596784545
700000000.0,0.00300379302511,0.00112362849665,0.996422330881,-0.0340182771354,0.996422330881,-0.0340182771354,0.00300379302511,0.00112362849665
800000000.0,0.00302111663682,0.00128347187335,0.996234717631,-0.0388757799187,0.996234717631,-0.0388757799187,0.00302111663682,0.00128347187335
900000000.0,0.00303952195099,0.00144311215123,0.99602390994,-0.0437324322093,0.99602390994,-0.0437324322093,0.00303952195099,0.00144311215123
1000000000.0,0.00305910070898,0.00160253403587,0.995789816477,-0.0485881310804,0.995789816477,-0.0485881310804,0.00305910070898,0.00160253403587
1100000000.0,0.00307992095987,0.0017617218874,0.995532369829,-0.053442772458,0.995532369829,-0.053442772458,0.00307992095987,0.0017617218874
1200000000.0,0.00310203447909,0.00192065984136,0.995251519095,-0.0582962513397,0.995251519095,-0.0582962513397,0.00310203447909,0.00192065984136
1300000000.0,0.00312548143433,0.00207933189081,0.994947225228,-0.0631484619544,0.994947225228,-0.0631484619544,0.00312548143433,0.00207933189081
1400000000.0,0.00315029345164,0.00223772194385,0.994619457981,-0.0679992978819,0.994619457981,-0.0679992978819,0.00315029345164,0.00223772194386
1500000000.0,0.00317649570422,0.0023958138652,0.994268193827,-0.0728486521462,0.994268193827,-0.0728486521462,0.00317649570422,0.0023958138652
1600000000.0,0.00320410837934,0.00255359150676,0.993893414499,-0.0776964172886,0.993893414499,-0.0776964172886,0.00320410837934,0.00255359150676
1700000000.0,0.00323314773541,0.00271103873072,0.993495105942,-0.0825424854273,0.993495105942,-0.0825424854273,0.00323314773541,0.00271103873072
1800000000.0,0.00326362688096,0.00286813942719,0.993073257539,-0.0873867483064,0.993073257539,-0.0873867483064,0.00326362688096,0.00286813942719
1900000000.0,0.00329555635987,0.00302487752791,0.992627861535,-0.0922290973367,0.992627861535,-0.0922290973367,0.00329555635987,0.00302487752791
2000000000.0,0.0033289445987,0.00318123701703,0.992158912594,-0.09706942363,0.992158912594,-0.09706942363,0.0033289445987,0.00318123701703
2100000000.0,0.0033637982539,0.00333720193974,0.991666407458,-0.101907618029,0.991666407458,-0.101907618029,0.00336379825391,0.00333720193974
2200000000.0,0.00340012248493,0.0034927564092,0.991150344679,-0.106743571134,0.991150344679,-0.106743571134,0.00340012248493,0.0034927564092
2300000000.0,0.00343792117176,0.00364788461216,0.99061072441,-0.111577173323,0.99061072441,-0.111577173323,0.00343792117176,0.00364788461216
2400000000.0,0.00347719709013,0.00380257081366,0.990047548228,-0.116408314773,0.990047548228,-0.116408314773,0.00347719709013,0.00380257081366
2500000000.0,0.00351795205405,0.00395679936081,0.989460819005,-0.12123688548,0.989460819005,-0.12123688548,0.00351795205405,0.00395679936081
2600000000.0,0.0035601870329,0.00411055468608,0.988850540786,-0.126062775269,0.988850540786,-0.126062775269,0.0035601870329,0.00411055468608
2700000000.0,0.00360390224838,0.00426382130995,0.988216718706,-0.130885873816,0.988216718706,-0.130885873816,0.00360390224838,0.00426382130995
2800000000.0,0.00364909725549,0.00441658384328,0.987559358905,-0.135706070654,0.987559358905,-0.135706070654,0.00364909725549,0.00441658384328
2900000000.0,0.00369577101063,0.00456882698925,0.986878468468,-0.140523255191,0.986878468468,-0.140523255191,0.00369577101063,0.00456882698925
3000000000.0,0.00374392192928,0.00472053554508,0.986174055373,-0.145337316714,0.986174055373,-0.145337316714,0.00374392192928,0.00472053554508
3100000000.0,0.00379354793516,0.00487169440355,0.98544612844,-0.150148144409,0.98544612844,-0.150148144409,0.00379354793516,0.00487169440355
3200000000.0,0.00384464650247,0.00502228855423,0.984694697297,-0.15495562736,0.984694697297,-0.15495562736,0.00384464650247,0.00502228855423
3300000000.0,0.00389721469218,0.00517230308472,0.983919772347,-0.159759654566,0.983919772347,-0.159759654566,0.00389721469218,0.00517230308472
3400000000.0,0.00395124918367,0.00532172318161,0.983121364736,-0.164560114946,0.983121364736,-0.164560114946,0.00395124918367,0.00532172318161
3500000000.0,0.00400674630221,0.00547053413142,0.982299486334,-0.169356897344,0.982299486334,-0.169356897344,0.00400674630221,0.00547053413142
3600000000.0,0.00406370204309,0.00561872132143,0.981454149708,-0.174149890545,0.981454149708,-0.174149890545,0.00406370204309,0.00561872132143
3700000000.0,0.00412211209281,0.00576627024044,0.98058536811,-0.178938983271,0.98058536811,-0.178938983271,0.00412211209281,0.00576627024044
3800000000.0,0.00418197184789,0.00591316647943,0.979693155457,-0.183724064197,0.979693155457,-0.183724064197,0.00418197184789,0.00591316647943
3900000000.0,0.00424327643152,0.00605939573223,0.978777526319,-0.188505021952,0.978777526319,-0.188505021952,0.00424327643152,0.00605939573223
4000000000.0,0.00430602070846,0.00620494379605,0.977838495907,-0.193281745129,0.977838495907,-0.193281745129,0.00430602070846,0.00620494379605
4100000000.0,0.0043701992983,0.00634979657209,0.976876080061,-0.198054122287,0.976876080061,-0.198054122287,0.0043701992983,0.00634979657209
4200000000.0,0.00443580658749,0.00649394006599,0.975890295243,-0.202822041959,0.975890295243,-0.202822041959,0.00443580658749,0.00649394006599
4300000000.0,0.00450283674013,0.00663736038836,0.974881158525,-0.207585392658,0.974881158525,-0.207585392658,0.00450283674013,0.00663736038836
4400000000.0,0.00457128370775,0.00678004375518,0.973848687586,-0.212344062879,0.973848687586,-0.212344062879,0.00457128370775,0.00678004375518
4500000000.0,0.00464114123819,0.0069219764883,0.972792900703,-0.217097941109,0.972792900703,-0.217097941109,0.00464114123819,0.0069219764883
4600000000.0,0.00471240288376,0.00706314501576,0.971713816747,-0.221846915829,0.971713816747,-0.221846915829,0.00471240288376,0.00706314501576
4700000000.0,0.00478506200864,0.00720353587226,0.970611455175,-0.226590875519,0.970611455175,-0.226590875519,0.00478506200864,0.00720353587226
4800000000.0,0.00485911179568,0.00734313569949,0.969485836029,-0.231329708662,0.969485836029,-0.231329708662,0.00485911179568,0.00734313569949
4900000000.0,0.00493454525272,0.00748193124651,0.968336979929,-0.236063303752,0.968336979929,-0.236063303752,0.00493454525272,0.00748193124651
5000000000.0,0.00501135521839,0.0076199093701,0.967164908071,-0.240791549294,0.967164908071,-0.240791549294,0.00501135521839,0.0076199093701
5100000000.0,0.00508953436747,0.00775705703507,0.965969642223,-0.245514333813,0.965969642223,-0.245514333813,0.00508953436747,0.00775705703507
5200000000.0,0.00516907521587,0.00789336131464,0.964751204723,-0.250231545854,0.964751204723,-0.250231545854,0.00516907521587,0.00789336131464
5300000000.0,0.00524997012537,0.0080288093907,0.963509618475,-0.254943073988,0.963509618475,-0.254943073988,0.00524997012537,0.0080288093907
5400000000.0,0.00533221130789,0.00816338855417,0.962244906947,-0.259648806819,0.962244906947,-0.259648806819,0.00533221130789,0.00816338855417
5500000000.0,0.00541579082963,0.00829708620525,0.96095709417,-0.264348632983,0.96095709417,-0.264348632983,0.00541579082963,0.00829708620525
5600000000.0,0.00550070061487,0.00842988985376,0.959646204734,-0.269042441154,0.959646204734,-0.269042441154,0.00550070061487,0.00842988985376
5700000000.0,0.00558693244961,0.00856178711941,0.958312263789,-0.273730120051,0.958312263789,-0.273730120051,0.00558693244961,0.00856178711941
5800000000.0,0.00567447798498,0.00869276573205,0.95695529704,-0.278411558436,0.95695529704,-0.278411558436,0.00567447798498,0.00869276573205
5900000000.0,0.00576332874046,0.00882281353202,0.955575330747,-0.283086645125,0.955575330747,-0.283086645125,0.00576332874046,0.00882281353202
6000000000.0,0.00585347610693,0.00895191847032,0.954172391725,-0.287755268985,0.954172391725,-0.287755268985,0.00585347610693,0.00895191847032
6100000000.0,0.00594491134966,0.00908006860897,0.95274650734,-0.292417318942,0.95274650734,-0.292417318942,0.00594491134966,0.00908006860897
6200000000.0,0.00603762561098,0.0092072521212,0.951297705512,-0.297072683982,0.951297705512,-0.297072683982,0.00603762561098,0.0092072521212
6300000000.0,0.00613160991301,0.00933345729171,0.949826014708,-0.301721253157,0.949826014708,-0.301721253157,0.00613160991301,0.00933345729171
6400000000.0,0.00622685516018,0.00945867251698,0.948331463947,-0.306362915588,0.948331463947,-0.306362915588,0.00622685516018,0.00945867251698
6500000000.0,0.00632335214164,0.00958288630541,0.946814082793,-0.310997560468,0.946814082793,-0.310997560468,0.00632335214164,0.00958288630541
6600000000.0,0.00642109153364,0.00970608727767,0.945273901362,-0.315625077065,0.945273901362,-0.315625077065,0.00642109153364,0.00970608727767
6700000000.0,0.00652006390173,0.00982826416685,0.943710950312,-0.320245354727,0.943710950312,-0.320245354727,0.00652006390173,0.00982826416685
6800000000.0,0.00662025970295,0.00994940581872,0.94212526085,-0.324858282884,0.94212526085,-0.324858282884,0.00662025970295,0.00994940581872
6900000000.0,0.00672166928792,0.010069501192,0.940516864726,-0.329463751054,0.940516864726,-0.329463751054,0.00672166928792,0.010069501192
7000000000.0,0.00682428290287,0.0101885393584,0.938885794236,-0.334061648841,0.938885794236,-0.334061648841,0.00682428290287,0.0101885393584
7100000000.0,0.00692809069157,0.0103065095031,0.93723208222,-0.338651865947,0.93723208222,-0.338651865947,0.00692809069157,0.0103065095031
7200000000.0,0.00703308269725,0.0104234009249,0.935555762058,-0.343234292165,0.935555762058,-0.343234292165,0.00703308269725,0.0104234009249
7300000000.0,0.00713924886445,0.0105392030362,0.933856867677,-0.347808817392,0.933856867677,-0.347808817392,0.00713924886445,0.0105392030362
7400000000.0,0.00724657904077,0.0106539053635,0.932135433542,-0.352375331625,0.932135433542,-0.352375331625,0.00724657904077,0.0106539053635
7500000000.0,0.00735506297865,0.0107674975473,0.930391494662,-0.35693372497,0.930391494662,-0.35693372497,0.00735506297865,0.0107674975473
7600000000.0,0.00746469033705,0.0108799693427,0.928625086585,-0.361483887639,0.928625086585,-0.361483887639,0.00746469033705,0.0108799693427
7700000000.0,0.00757545068314,0.0109913106192,0.9268362454,-0.36602570996,0.9268362454,-0.36602570996,0.00757545068314,0.0109913106192
7800000000.0,0.00768733349384,0.011101511361,0.925025007735,-0.370559082377,0.925025007735,-0.370559082377,0.00768733349384,0.011101511361
7900000000.0,0.0078003281575,0.0112105616675,0.923191410758,-0.37508389545,0.923191410758,-0.37508389545,0.0078003281575,0.0112105616675
8000000000.0,0.00791442397537,0.0113184517529,0.921335492175,-0.379600039865,0.921335492175,-0.379600039865,0.00791442397537,0.0113184517529
8100000000.0,0.00802961016314,0.011425171947,0.91945729023,-0.384107406432,0.91945729023,-0.384107406432,0.00802961016314,0.011425171947
8200000000.0,0.00814587585245,0.0115307126947,0.917556843706,-0.38860588609,0.917556843706,-0.38860588609,0.00814587585245,0.0115307126947
8300000000.0,0.0082632100923,0.0116350645568,0.915634191921,-0.39309536991,0.915634191921,-0.39309536991,0.0082632100923,0.0116350645568
8400000000.0,0.00838160185053,0.0117382182099,0.91368937473,-0.397575749098,0.91368937473,-0.397575749098,0.00838160185053,0.0117382182099
8500000000.0,0.00850104001516,0.0118401644464,0.911722432525,-0.402046914998,0.911722432525,-0.402046914998,0.00850104001516,0.0118401644464
8600000000.0,0.00862151339586,0.011940894175,0.909733406232,-0.406508759095,0.909733406232,-0.406508759095,0.00862151339586,0.011940894175
8700000000.0,0.00874301072523,0.0120403984206,0.907722337313,-0.410961173021,0.907722337313,-0.410961173021,0.00874301072523,0.0120403984206
8800000000.0,0.00886552066016,0.0121386683245,0.905689267765,-0.415404048551,0.905689267765,-0.415404048551,0.00886552066016,0.0121386683245
8900000000.0,0.00898903178317,0.0122356951446,0.903634240116,-0.419837277614,0.903634240116,-0.419837277614,0.00898903178317,0.0122356951446
9000000000.0,0.0091135326037,0.0123314702555,0.901557297431,-0.424260752291,0.901557297431,-0.424260752291,0.0091135326037,0.0123314702555
9100000000.0,0.00923901155937,0.0124259851486,0.899458483305,-0.42867436482,0.899458483305,-0.42867436482,0.00923901155937,0.0124259851486
9200000000.0,0.00936545701724,0.0125192314325,0.897337841867,-0.4330780076,0.897337841867,-0.4330780076,0.00936545701724,0.0125192314325
9300000000.0,0.00949285727512,0.0126112008327,0.895195417776,-0.437471573189,0.895195417776,-0.437471573189,0.00949285727513,0.0126112008327
9400000000.0,0.00962120056273,0.012701885192,0.893031256224,-0.441854954314,0.893031256224,-0.441854954314,0.00962120056273,0.012701885192
9500000000.0,0.00975047504293,0.0127912764707,0.89084540293,-0.44622804387,0.89084540293,-0.44622804387,0.00975047504293,0.0127912764707
9600000000.0,0.00988066881295,0.0128793667464,0.888637904148,-0.450590734923,0.888637904148,-0.450590734923,0.00988066881295,0.0128793667464
9700000000.0,0.0100117699056,0.0129661482146,0.886408806657,-0.454942920713,0.886408806657,-0.454942920713,0.0100117699056,0.0129661482146
9800000000.0,0.0101437662902,0.0130516131881,0.884158157766,-0.459284494659,0.884158157766,-0.459284494659,0.0101437662902,0.0130516131881
9900000000.0,0.0102766458744,0.013135754098,0.881886005313,-0.46361535036,0.881886005313,-0.46361535036,0.0102766458744,0.013135754098
10000000000.0,0.0104103965044,0.013218563493,0.879592397661,-0.467935381598,0.879592397661,-0.467935381598,0.0104103965044,0.013218563493
