freq (GHz),S11_real,S11_imag,S21_real,S21_imag,S12_real,S12_imag,S22_real,S22_imag
100000000.0,0.000126879364416,-0.00240004413967,0.99984921284,-0.00347121043475,0.99984921284,-0.00347121043475,0.000126879364416,-0.00240004413967
200000000.0,9.99854116717e-05,-0.00480010492822,0.999818721849,-0.00694248766496,0.999818721849,-0.00694248766496,9.99854116717e-05,-0.00480010492822
300000000.0,5.6183026736e-05,-0.00720013391893,0.999770655882,-0.0104138133527,0.999770655882,-0.0104138133527,5.6183026736e-05,-0.00720013391893
400000000.0,-4.41148568409e-06,-0.00960005906875,0.999704891724,-0.0138851383873,0.999704891724,-0.0138851383873,-4.4114856842e-06,-0.00960005906875
500000000.0,-8.17553799551e-05,-0.0119997958134,0.999621379859,-0.0173563978257,0.999621379859,-0.0173563978257,-8.17553799554e-05,-0.0119997958134
600000000.0,-0.000175828122936,-0.0143992510897,0.999520093621,-0.0208275161259,0.999520093621,-0.0208275161259,-0.000175828122936,-0.0143992510897
700000000.0,-0.000286618247582,-0.0167983254298,0.999401016398,-0.024298409839,0.999401016398,-0.024298409839,-0.000286618247582,-0.0167983254298
800000000.0,-0.000414118488873,-0.019196914242,0.999264137049,-0.0277689892406,0.999264137049,-0.0277689892406,-0.000414118488873,-0.019196914242
900000000.0,-0.000558323569845,-0.0215949086745,0.999109447916,-0.0312391594225,0.999109447916,-0.0312391594225,-0.000558323569845,-0.0215949086745
1000000000.0,-0.000719229042985,-0.0239921962384,0.998936943862,-0.0347088210752,0.998936943862,-0.0347088210752,-0.000719229042985,-0.0239921962384
1100000000.0,-0.000896830617796,-0.0263886612801,0.998746621759,-0.0381778710767,0.998746621759,-0.0381778710767,-0.000896830617796,-0.0263886612801
1200000000.0,-0.00109112373752,-0.0287841853532,0.998538480215,-0.0416462029526,0.998538480215,-0.0416462029526,-0.00109112373752,-0.0287841853532
1300000000.0,-0.00130210329453,-0.0311786475209,0.998312519418,-0.0451137072486,0.998312519418,-0.0451137072486,-0.00130210329453,-0.0311786475209
1400000000.0,-0.00152976342823,-0.0335719246081,0.998068741048,-0.0485802718379,0.998068741048,-0.0485802718379,-0.00152976342823,-0.0335719246081
1500000000.0,-0.0017740973748,-0.0359638914161,0.997807148234,-0.0520457821812,0.997807148234,-0.0520457821812,-0.0017740973748,-0.0359638914161
1600000000.0,-0.00203509735126,-0.0383544209083,0.997527745532,-0.0555101215506,0.997527745532,-0.0555101215506,-0.00203509735126,-0.0383544209083
1700000000.0,-0.00231275446304,-0.0407433843737,0.99723053892,-0.0589731712251,0.99723053892,-0.0589731712251,-0.00231275446304,-0.0407433843737
1800000000.0,-0.0026070586285,-0.043130651573,0.9969155358,-0.0624348106639,0.9969155358,-0.0624348106639,-0.0026070586285,-0.043130651573
1900000000.0,-0.00291799851584,-0.0455160908699,0.996582745008,-0.0658949176613,0.996582745008,-0.0658949176613,-0.00291799851583,-0.0455160908699
2000000000.0,-0.00324556148957,-0.0478995693508,0.996232176827,-0.0693533684868,0.996232176827,-0.0693533684868,-0.00324556148957,-0.0478995693508
2100000000.0,-0.00358973356448,-0.0502809529349,0.995863843001,-0.0728100380137,0.995863843001,-0.0728100380137,-0.00358973356448,-0.0502809529349
2200000000.0,-0.00395049936553,-0.0526601064759,0.995477756748,-0.0762647998362,0.995477756748,-0.0762647998362,-0.00395049936553,-0.0526601064759
2300000000.0,-0.00432784209274,-0.0550368938567,0.995073932782,-0.0797175263788,0.995073932782,-0.0797175263788,-0.00432784209274,-0.0550368938567
2400000000.0,-0.00472174349025,-0.0574111780786,0.994652387322,-0.083168088998,0.994652387322,-0.083168088998,-0.00472174349025,-0.0574111780786
2500000000.0,-0.00513218381891,-0.0597828213446,0.994213138109,-0.0866163580773,0.994213138109,-0.0866163580773,-0.00513218381891,-0.0597828213446
2600000000.0,-0.005559141832,-0.0621516851388,0.993756204422,-0.0900622031168,0.993756204422,-0.0900622031168,-0.005559141832,-0.0621516851388
2700000000.0,-0.00600259475362,-0.0645176303015,0.993281607088,-0.0935054928179,0.993281607088,-0.0935054928179,-0.00600259475362,-0.0645176303015
2800000000.0,-0.00646251825963,-0.066880517101,0.992789368498,-0.0969460951637,0.992789368498,-0.0969460951637,-0.00646251825963,-0.066880517101
2900000000.0,-0.00693888646073,-0.0692402053021,0.992279512612,-0.100383877496,0.992279512612,-0.100383877496,-0.00693888646073,-0.0692402053021
3000000000.0,-0.00743167188756,-0.0715965542319,0.991752064978,-0.103818706586,0.991752064978,-0.103818706586,-0.00743167188756,-0.0715965542319
3100000000.0,-0.00794084547768,-0.073949422843,0.991207052734,-0.107250448709,0.991207052734,-0.107250448709,-0.00794084547768,-0.073949422843
3200000000.0,-0.00846637656429,-0.0762986697743,0.990644504617,-0.110678969706,0.990644504617,-0.110678969706,-0.00846637656429,-0.0762986697743
3300000000.0,-0.00900823286652,-0.0786441534099,0.990064450973,-0.114104135053,0.990064450973,-0.114104135053,-0.00900823286652,-0.0786441534099
3400000000.0,-0.00956638048127,-0.0809857319361,0.989466923759,-0.11752580992,0.989466923759,-0.11752580992,-0.00956638048127,-0.0809857319361
3500000000.0,-0.0101407838764,-0.083323263396,0.988851956552,-0.120943859231,0.988851956552,-0.120943859231,-0.0101407838764,-0.083323263396
3600000000.0,-0.0107314058854,-0.0856566057431,0.988219584547,-0.124358147725,0.988219584547,-0.124358147725,-0.0107314058854,-0.0856566057431
3700000000.0,-0.011338207703,-0.0879856168935,0.987569844564,-0.12776854001,0.987569844564,-0.12776854001,-0.011338207703,-0.0879856168935
3800000000.0,-0.0119611488828,-0.0903101547754,0.986902775049,-0.131174900618,0.986902775049,-0.131174900618,-0.0119611488828,-0.0903101547754
3900000000.0,-0.0126001873349,-0.092630077379,0.986218416073,-0.134577094057,0.986218416073,-0.134577094057,-0.0126001873349,-0.092630077379
4000000000.0,-0.0132552793255,-0.0949452428034,0.985516809333,-0.137974984862,0.985516809333,-0.137974984862,-0.0132552793255,-0.0949452428034
4100000000.0,-0.0139263794773,-0.0972555093036,0.98479799815,-0.14136843765,0.98479799815,-0.14136843765,-0.0139263794773,-0.0972555093036
4200000000.0,-0.014613440771,-0.0995607353355,0.984062027467,-0.144757317159,0.984062027467,-0.144757317159,-0.014613440771,-0.0995607353355
4300000000.0,-0.0153164145478,-0.1018607796,0.983308943847,-0.148141488305,0.983308943847,-0.148141488305,-0.0153164145478,-0.1018607796
4400000000.0,-0.0160352505122,-0.104155501087,0.982538795466,-0.151520816221,0.982538795466,-0.151520816221,-0.0160352505122,-0.104155501087
4500000000.0,-0.0167698967372,-0.106444759115,0.981751632112,-0.154895166306,0.981751632112,-0.154895166306,-0.0167698967372,-0.106444759115
4600000000.0,-0.0175202996685,-0.108728413376,0.980947505178,-0.158264404264,0.980947505178,-0.158264404264,-0.0175202996685,-0.108728413376
4700000000.0,-0.0182864041313,-0.111006323972,0.980126467654,-0.161628396154,0.980126467654,-0.161628396154,-0.0182864041313,-0.111006323972
4800000000.0,-0.0190681533366,-0.113278351456,0.979288574123,-0.164987008423,0.979288574123,-0.164987008423,-0.0190681533366,-0.113278351456
4900000000.0,-0.0198654888889,-0.11554435687,0.978433880748,-0.168340107953,0.978433880748,-0.168340107953,-0.0198654888889,-0.11554435687
5000000000.0,-0.0206783507948,-0.117804201782,0.97756244527,-0.171687562097,0.97756244527,-0.171687562097,-0.0206783507948,-0.117804201782
5100000000.0,-0.021506677472,-0.120057748323,0.976674326994,-0.175029238719,0.976674326994,-0.175029238719,-0.021506677472,-0.120057748323
5200000000.0,-0.022350405759,-0.122304859223,0.975769586779,-0.178365006231,0.975769586779,-0.178365006231,-0.022350405759,-0.122304859223
5300000000.0,-0.0232094709257,-0.124545397845,0.974848287029,-0.181694733631,0.974848287029,-0.181694733631,-0.0232094709257,-0.124545397845
5400000000.0,-0.0240838066848,-0.126779228219,0.973910491683,-0.185018290535,0.973910491683,-0.185018290535,-0.0240838066848,-0.126779228219
5500000000.0,-0.0249733452033,-0.129006215078,0.972956266198,-0.188335547217,0.972956266198,-0.188335547217,-0.0249733452033,-0.129006215078
5600000000.0,-0.0258780171152,-0.131226223886,0.971985677541,-0.19164637464,0.971985677541,-0.19164637464,-0.0258780171152,-0.131226223886
5700000000.0,-0.0267977515346,-0.133439120872,0.970998794174,-0.194950644491,0.970998794174,-0.194950644491,-0.0267977515346,-0.133439120872
5800000000.0,-0.0277324760689,-0.135644773065,0.969995686041,-0.198248229212,0.969995686041,-0.198248229212,-0.0277324760689,-0.135644773065
5900000000.0,-0.0286821168339,-0.137843048315,0.968976424553,-0.201539002031,0.968976424553,-0.201539002031,-0.0286821168339,-0.137843048315
6000000000.0,-0.0296465984675,-0.140033815334,0.967941082572,-0.204822836995,0.967941082572,-0.204822836995,-0.0296465984675,-0.140033815334
6100000000.0,-0.0306258441459,-0.142216943713,0.966889734398,-0.208099609001,0.966889734398,-0.208099609001,-0.0306258441459,-0.142216943713
6200000000.0,-0.0316197755989,-0.144392303962,0.965822455752,-0.211369193822,0.965822455752,-0.211369193822,-0.0316197755989,-0.144392303962
6300000000.0,-0.0326283131263,-0.146559767527,0.964739323759,-0.214631468135,0.964739323759,-0.214631468135,-0.0326283131263,-0.146559767527
6400000000.0,-0.0336513756147,-0.148719206824,0.963640416932,-0.217886309556,0.963640416932,-0.217886309556,-0.0336513756147,-0.148719206824
6500000000.0,-0.0346888805545,-0.150870495262,0.962525815156,-0.221133596659,0.962525815156,-0.221133596659,-0.0346888805545,-0.150870495262
6600000000.0,-0.0357407440582,-0.153013507268,0.961395599665,-0.224373209005,0.961395599665,-0.224373209005,-0.0357407440582,-0.153013507268
6700000000.0,-0.0368068808775,-0.155148118313,0.960249853032,-0.22760502717,0.960249853032,-0.22760502717,-0.0368068808775,-0.155148118313
6800000000.0,-0.0378872044226,-0.157274204937,0.959088659143,-0.230828932769,0.959088659143,-0.230828932769,-0.0378872044226,-0.157274204937
6900000000.0,-0.0389816267808,-0.15939164477,0.957912103183,-0.234044808477,0.957912103183,-0.234044808477,-0.0389816267808,-0.15939164477
7000000000.0,-0.0400900587354,-0.161500316556,0.956720271613,-0.237252538058,0.956720271613,-0.237252538058,-0.0400900587354,-0.161500316556
7100000000.0,-0.0412124097861,-0.163600100175,0.955513252155,-0.240452006383,0.955513252155,-0.240452006383,-0.0412124097861,-0.163600100175
7200000000.0,-0.0423485881681,-0.165690876665,0.954291133765,-0.243643099455,0.954291133765,-0.243643099455,-0.0423485881681,-0.165690876665
7300000000.0,-0.0434985008727,-0.167772528242,0.953054006621,-0.246825704432,0.953054006621,-0.246825704432,-0.0434985008727,-0.167772528242
7400000000.0,-0.0446620536681,-0.169844938321,0.951801962096,-0.249999709642,0.951801962096,-0.249999709642,-0.0446620536681,-0.169844938321
7500000000.0,-0.04583915112,-0.171907991535,0.950535092739,-0.253165004611,0.950535092739,-0.253165004611,-0.04583915112,-0.171907991535
7600000000.0,-0.0470296966129,-0.173961573754,0.949253492257,-0.256321480076,0.949253492257,-0.256321480076,-0.0470296966129,-0.173961573754
7700000000.0,-0.0482335923713,-0.176005572104,0.947957255486,-0.259469028009,0.947957255486,-0.259469028009,-0.0482335923713,-0.176005572104
7800000000.0,-0.0494507394818,-0.178039874983,0.946646478379,-0.262607541631,0.946646478379,-0.262607541631,-0.0494507394818,-0.178039874983
7900000000.0,-0.0506810379146,-0.180064372081,0.945321257974,-0.265736915433,0.945321257974,-0.265736915433,-0.0506810379146,-0.180064372081
8000000000.0,-0.0519243865459,-0.182078954394,0.943981692381,-0.268857045191,0.943981692381,-0.268857045191,-0.0519243865459,-0.182078954394
8100000000.0,-0.0531806831802,-0.184083514241,0.942627880752,-0.271967827984,0.942627880752,-0.271967827984,-0.0531806831802,-0.184083514241
8200000000.0,-0.0544498245727,-0.186077945279,0.941259923263,-0.275069162208,0.941259923263,-0.275069162208,-0.0544498245727,-0.186077945279
8300000000.0,-0.0557317064526,-0.188062142518,0.939877921091,-0.278160947594,0.939877921091,-0.278160947594,-0.0557317064526,-0.188062142518
8400000000.0,-0.0570262235451,-0.190036002336,0.938481976388,-0.28124308522,0.938481976388,-0.28124308522,-0.0570262235451,-0.190036002336
8500000000.0,-0.0583332695955,-0.19199942249,0.937072192261,-0.284315477524,0.937072192261,-0.284315477524,-0.0583332695955,-0.19199942249
8600000000.0,-0.0596527373915,-0.193952302131,0.935648672747,-0.287378028321,0.935648672747,-0.287378028321,-0.0596527373915,-0.193952302131
8700000000.0,-0.0609845187875,-0.195894541816,0.934211522791,-0.290430642815,0.934211522791,-0.290430642815,-0.0609845187875,-0.195894541816
8800000000.0,-0.0623285047272,-0.197826043521,0.93276084822,-0.293473227608,0.93276084822,-0.293473227608,-0.0623285047272,-0.197826043521
8900000000.0,-0.0636845852678,-0.199746710651,0.931296755722,-0.296505690716,0.931296755722,-0.296505690716,-0.0636845852678,-0.199746710651
9000000000.0,-0.0650526496035,-0.201656448048,0.929819352821,-0.299527941576,0.929819352821,-0.299527941576,-0.0650526496035,-0.201656448048
9100000000.0,-0.0664325860893,-0.203555162009,0.928328747853,-0.302539891059,0.928328747853,-0.302539891059,-0.0664325860893,-0.203555162009
9200000000.0,-0.0678242822649,-0.205442760287,0.926825049943,-0.30554145148,0.926825049943,-0.30554145148,-0.0678242822649,-0.205442760287
9300000000.0,-0.0692276248785,-0.207319152104,0.92530836898,-0.308532536608,0.92530836898,-0.308532536608,-0.0692276248785,-0.207319152104
9400000000.0,-0.0706424999111,-0.209184248161,0.923778815593,-0.311513061669,0.923778815593,-0.311513061669,-0.0706424999111,-0.209184248161
9500000000.0,-0.0720687926002,-0.211037960644,0.922236501128,-0.314482943365,0.922236501128,-0.314482943365,-0.0720687926002,-0.211037960644
9600000000.0,-0.073506387464,-0.212880203231,0.920681537623,-0.31744209987,0.920681537623,-0.31744209987,-0.073506387464,-0.212880203231
9700000000.0,-0.0749551683254,-0.2147108911,0.919114037784,-0.320390450846,0.919114037784,-0.320390450846,-0.0749551683254,-0.2147108911
9800000000.0,-0.0764150183365,-0.216529940937,0.91753411496,-0.323327917445,0.91753411496,-0.323327917445,-0.0764150183365,-0.216529940937
9900000000.0,-0.0778858200021,-0.218337270937,0.915941883123,-0.326254422318,0.915941883123,-0.326254422318,-0.0778858200021,-0.218337270937
10000000000.0,-0.0793674552042,-0.220132800815,0.914337456835,-0.329169889618,0.914337456835,-0.329169889618,-0.0793674552042,-0.220132800815
