freq (GHz),S11_real,S11_imag,S21_real,S21_imag,S12_real,S12_imag,S22_real,S22_imag
100000000.0,0.0867101192635,0.00482074708373,0.913285766482,-0.00653942636172,0.913285766482,-0.00653942636172,0.0867101192635,0.00482074708373
200000000.0,0.0873346246673,0.0096272222422,0.912655098141,-0.0130646013603,0.912655098141,-0.0130646013603,0.0873346246673,0.0096272222422
300000000.0,0.0878861159788,0.0144235012847,0.912094393809,-0.019579620117,0.912094393809,-0.019579620117,0.0878861159788,0.0144235012847
400000000.0,0.0884337274623,0.019210194878,0.911534518017,-0.0260851109492,0.911534518017,-0.0260851109492,0.0884337274623,0.019210194878
500000000.0,0.0890040266145,0.0239871115266,0.910948902083,-0.0325808991767,0.910948902083,-0.0325808991767,0.0890040266145,0.0239871115266
600000000.0,0.0896104844646,0.0287537076882,0.910324073746,-0.0390664575275,0.910324073746,-0.0390664575275,0.0896104844646,0.0287537076882
700000000.0,0.090260972925,0.0335092497904,0.909652159788,-0.0455410683023,0.909652159788,-0.0455410683023,0.090260972925,0.0335092497904
800000000.0,0.0909605027917,0.0382528897091,0.908928148024,-0.0520038989412,0.908928148024,-0.0520038989412,0.0909605027917,0.0382528897091
900000000.0,0.0917124435387,0.0429837056144,0.908148667489,-0.0584540429282,0.908148667489,-0.0584540429282,0.0917124435387,0.0429837056144
1000000000.0,0.0925191419663,0.0477007264331,0.907311369788,-0.0648905442952,0.907311369788,-0.0648905442952,0.0925191419663,0.0477007264331
1100000000.0,0.0933822663339,0.0524029476375,0.906414584958,-0.0713124134405,0.906414584958,-0.0713124134405,0.0933822663339,0.0524029476375
1200000000.0,0.0943030115973,0.0570893420488,0.905457116226,-0.0777186379561,0.905457116226,-0.0777186379561,0.0943030115973,0.0570893420488
1300000000.0,0.095282228688,0.0617588675891,0.904438110729,-0.084108190397,0.904438110729,-0.084108190397,0.095282228688,0.0617588675891
1400000000.0,0.0963205096313,0.0664104730683,0.903356974394,-0.0904800340842,0.903356974394,-0.0904800340842,0.0963205096313,0.0664104730683
1500000000.0,0.0974182456845,0.0710431026543,0.902213313795,-0.0968331275858,0.902213313795,-0.0968331275858,0.0974182456845,0.0710431026543
1600000000.0,0.0985756683048,0.0756556994266,0.901006895189,-0.103166428281,0.901006895189,-0.103166428281,0.0985756683048,0.0756556994266
1700000000.0,0.0997928788051,0.0802472082743,0.899737614855,-0.109478895268,0.899737614855,-0.109478895268,0.0997928788051,0.0802472082743
1800000000.0,0.101069870337,0.0848165783119,0.898405477114,-0.115769491784,0.898405477114,-0.115769491784,0.101069870337,0.0848165783119
1900000000.0,0.102406544535,0.08936276493,0.89701057768,-0.122037187267,0.89701057768,-0.122037187267,0.102406544535,0.08936276493
2000000000.0,0.103802724363,0.0938847315673,0.895553090816,-0.128280959128,0.895553090816,-0.128280959128,0.103802724363,0.0938847315673
2100000000.0,0.105258164209,0.0983814512596,0.894033259238,-0.13449979431,0.894033259238,-0.13449979431,0.105258164209,0.0983814512596
2200000000.0,0.106772557946,0.102851908014,0.892451386054,-0.140692690662,0.892451386054,-0.140692690662,0.106772557946,0.102851908014
2300000000.0,0.108345545475,0.107295098034,0.89080782822,-0.146858658171,0.89080782822,-0.146858658171,0.108345545475,0.107295098034
2400000000.0,0.10997671811,0.111710030828,0.889102991155,-0.152996720076,0.889102991155,-0.152996720076,0.10997671811,0.111710030828
2500000000.0,0.111665623079,0.116095730216,0.887337324239,-0.159105913868,0.887337324239,-0.159105913868,0.111665623079,0.116095730216
2600000000.0,0.113411767331,0.120451235238,0.885511317007,-0.165185292217,0.885511317007,-0.165185292217,0.113411767331,0.120451235238
2700000000.0,0.115214620803,0.124775601002,0.883625495882,-0.171233923806,0.883625495882,-0.171233923806,0.115214620803,0.124775601002
2800000000.0,0.117073619259,0.129067899445,0.881680421334,-0.177250894109,0.881680421334,-0.177250894109,0.117073619259,0.129067899445
2900000000.0,0.118988166785,0.133327220051,0.879676685386,-0.183235306101,0.879676685386,-0.183235306101,0.118988166785,0.133327220051
3000000000.0,0.120957638004,0.137552670495,0.877614909398,-0.189186280909,0.877614909398,-0.189186280909,0.120957638004,0.137552670495
3100000000.0,0.122981380074,0.141743377251,0.875495742072,-0.195102958419,0.875495742072,-0.195102958419,0.122981380074,0.141743377251
3200000000.0,0.125058714491,0.14589848614,0.87331985764,-0.200984497832,0.87331985764,-0.200984497832,0.125058714491,0.14589848614
3300000000.0,0.127188938752,0.150017162844,0.871087954213,-0.206830078168,0.871087954213,-0.206830078168,0.127188938752,0.150017162844
3400000000.0,0.129371327884,0.154098593365,0.868800752242,-0.21263889874,0.868800752242,-0.21263889874,0.129371327884,0.154098593365
3500000000.0,0.131605135871,0.158141984459,0.866458993096,-0.218410179579,0.866458993096,-0.218410179579,0.131605135871,0.158141984459
3600000000.0,0.133889596993,0.162146564018,0.864063437721,-0.224143161823,0.864063437721,-0.224143161823,0.133889596993,0.162146564018
3700000000.0,0.136223927086,0.166111581422,0.861614865378,-0.229837108072,0.861614865378,-0.229837108072,0.136223927086,0.166111581422
3800000000.0,0.138607324743,0.17003630786,0.859114072447,-0.2354913027,0.859114072447,-0.2354913027,0.138607324743,0.17003630786
3900000000.0,0.141038972453,0.173920036602,0.85656187128,-0.241105052142,0.85656187128,-0.241105052142,0.141038972453,0.173920036602
4000000000.0,0.143518037698,0.17776208326,0.853959089112,-0.246677685144,0.853959089112,-0.246677685144,0.143518037698,0.17776208326
4100000000.0,0.146043674004,0.181561785993,0.851306567003,-0.252208552979,0.851306567003,-0.252208552979,0.146043674004,0.181561785993
4200000000.0,0.148615021953,0.185318505704,0.848605158831,-0.257697029636,0.848605158831,-0.257697029636,0.148615021953,0.185318505704
4300000000.0,0.151231210164,0.189031626186,0.845855730305,-0.263142511975,0.845855730305,-0.263142511975,0.151231210164,0.189031626186
4400000000.0,0.153891356242,0.192700554259,0.843059158022,-0.268544419857,0.843059158022,-0.268544419857,0.153891356242,0.192700554259
4500000000.0,0.156594567699,0.196324719859,0.84021632854,-0.273902196242,0.84021632854,-0.273902196242,0.156594567699,0.196324719859
4600000000.0,0.159339942851,0.199903576117,0.837328137485,-0.279215307263,0.837328137485,-0.279215307263,0.159339942851,0.199903576117
4700000000.0,0.162126571685,0.2034365994,0.834395488681,-0.284483242269,0.834395488681,-0.284483242269,0.162126571685,0.2034365994
4800000000.0,0.164953536712,0.206923289328,0.8314192933,-0.289705513846,0.8314192933,-0.289705513846,0.164953536712,0.206923289328
4900000000.0,0.167819913787,0.210363168772,0.828400469033,-0.294881657809,0.828400469033,-0.294881657809,0.167819913787,0.210363168772
5000000000.0,0.170724772924,0.213755783819,0.825339939289,-0.300011233174,0.825339939289,-0.300011233174,0.170724772924,0.213755783819
5100000000.0,0.173667179071,0.217100703719,0.822238632406,-0.305093822106,0.822238632406,-0.305093822106,0.173667179071,0.217100703719
5200000000.0,0.176646192884,0.220397520809,0.819097480882,-0.310129029835,0.819097480882,-0.310129029835,0.176646192884,0.220397520809
5300000000.0,0.179660871469,0.22364585041,0.815917420635,-0.315116484565,0.815917420635,-0.315116484565,0.179660871469,0.22364585041
5400000000.0,0.182710269113,0.22684533071,0.812699390268,-0.320055837351,0.812699390268,-0.320055837351,0.182710269113,0.22684533071
5500000000.0,0.185793437993,0.229995622622,0.809444330362,-0.324946761957,0.809444330362,-0.324946761957,0.185793437993,0.229995622622
5600000000.0,0.188909428863,0.233096409621,0.806153182785,-0.329788954698,0.806153182785,-0.329788954698,0.188909428863,0.233096409621
5700000000.0,0.192057291733,0.236147397567,0.802826890017,-0.334582134258,0.802826890017,-0.334582134258,0.192057291733,0.236147397567
5800000000.0,0.19523607652,0.239148314504,0.799466394496,-0.339326041496,0.799466394496,-0.339326041496,0.19523607652,0.239148314504
5900000000.0,0.198444833684,0.242098910447,0.796072637982,-0.344020439227,0.796072637982,-0.344020439227,0.198444833684,0.242098910447
6000000000.0,0.201682614847,0.244998957149,0.792646560936,-0.348665111995,0.792646560936,-0.348665111995,0.201682614847,0.244998957149
6100000000.0,0.204948473396,0.247848247855,0.789189101921,-0.353259865821,0.789189101921,-0.353259865821,0.204948473396,0.247848247855
6200000000.0,0.20824146506,0.250646597034,0.785701197018,-0.357804527945,0.785701197018,-0.357804527945,0.20824146506,0.250646597034
6300000000.0,0.211560648478,0.25339384011,0.782183779263,-0.362298946545,0.782183779263,-0.362298946545,0.211560648478,0.25339384011
6400000000.0,0.214905085745,0.256089833161,0.778637778099,-0.366742990451,0.778637778099,-0.366742990451,0.214905085745,0.256089833161
6500000000.0,0.218273842938,0.258734452628,0.775064118848,-0.371136548838,0.775064118848,-0.371136548838,0.218273842938,0.258734452628
6600000000.0,0.221665990628,0.261327594987,0.771463722198,-0.375479530916,0.771463722198,-0.375479530916,0.221665990628,0.261327594987
6700000000.0,0.22508060437,0.263869176433,0.767837503716,-0.379771865598,0.767837503716,-0.379771865598,0.22508060437,0.263869176433
6800000000.0,0.22851676518,0.266359132537,0.764186373368,-0.384013501169,0.764186373368,-0.384013501169,0.22851676518,0.266359132537
6900000000.0,0.231973559988,0.268797417903,0.760511235064,-0.388204404937,0.760511235064,-0.388204404937,0.231973559988,0.268797417903
7000000000.0,0.235450082078,0.271184005808,0.756812986219,-0.392344562876,0.756812986219,-0.392344562876,0.235450082078,0.271184005808
7100000000.0,0.23894543151,0.273518887842,0.753092517333,-0.396433979269,0.753092517333,-0.396433979269,0.23894543151,0.273518887842
7200000000.0,0.242458715518,0.275802073538,0.749350711586,-0.400472676329,0.749350711586,-0.400472676329,0.242458715518,0.275802073538
7300000000.0,0.245989048903,0.278033589988,0.745588444451,-0.404460693825,0.745588444451,-0.404460693825,0.245989048903,0.278033589988
7400000000.0,0.249535554393,0.280213481462,0.741806583329,-0.4083980887,0.741806583329,-0.4083980887,0.249535554393,0.280213481462
7500000000.0,0.253097362999,0.282341809022,0.738005987194,-0.412284934677,0.738005987194,-0.412284934677,0.253097362999,0.282341809022
7600000000.0,0.256673614347,0.284418650118,0.734187506261,-0.416121321868,0.734187506261,-0.416121321868,0.256673614347,0.284418650118
7700000000.0,0.260263456992,0.286444098199,0.730351981668,-0.419907356374,0.730351981668,-0.419907356374,0.260263456992,0.286444098199
7800000000.0,0.263866048724,0.288418262303,0.726500245174,-0.423643159881,0.726500245174,-0.423643159881,0.263866048724,0.288418262303
7900000000.0,0.267480556843,0.290341266656,0.72263311888,-0.42732886926,0.72263311888,-0.42732886926,0.267480556843,0.290341266656
8000000000.0,0.271106158434,0.292213250263,0.718751414954,-0.430964636152,0.718751414954,-0.430964636152,0.271106158434,0.292213250263
8100000000.0,0.274742040611,0.294034366497,0.714855935386,-0.434550626567,0.714855935386,-0.434550626567,0.274742040611,0.294034366497
8200000000.0,0.278387400758,0.295804782688,0.710947471749,-0.438087020464,0.710947471749,-0.438087020464,0.278387400758,0.295804782688
8300000000.0,0.282041446744,0.297524679714,0.707026804978,-0.441574011349,0.707026804978,-0.441574011349,0.282041446744,0.297524679714
8400000000.0,0.285703397126,0.299194251588,0.703094705169,-0.445011805854,0.703094705169,-0.445011805854,0.285703397126,0.299194251588
8500000000.0,0.289372481345,0.300813705042,0.699151931386,-0.448400623334,0.699151931386,-0.448400623334,0.289372481345,0.300813705042
8600000000.0,0.293047939893,0.302383259124,0.695199231486,-0.45174069545,0.695199231486,-0.45174069545,0.293047939893,0.302383259124
8700000000.0,0.296729024476,0.303903144782,0.69123734196,-0.455032265764,0.69123734196,-0.455032265764,0.296729024476,0.303903144782
8800000000.0,0.300414998159,0.305373604457,0.687266987784,-0.458275589326,0.687266987784,-0.458275589326,0.300414998159,0.305373604457
8900000000.0,0.304105135497,0.30679489168,0.683288882291,-0.461470932274,0.683288882291,-0.461470932274,0.304105135497,0.30679489168
9000000000.0,0.307798722657,0.308167270664,0.679303727047,-0.464618571425,0.679303727047,-0.464618571425,0.307798722657,0.308167270664
9100000000.0,0.311495057518,0.309491015909,0.675312211745,-0.46771879388,0.675312211745,-0.46771879388,0.311495057518,0.309491015909
9200000000.0,0.315193449768,0.310766411798,0.671315014115,-0.470771896623,0.671315014115,-0.470771896623,0.315193449768,0.310766411798
9300000000.0,0.318893220981,0.311993752207,0.667312799841,-0.473778186125,0.667312799841,-0.473778186125,0.318893220981,0.311993752207
9400000000.0,0.322593704686,0.313173340115,0.663306222493,-0.476737977962,0.663306222493,-0.476737977962,0.322593704686,0.313173340115
9500000000.0,0.326294246422,0.314305487216,0.65929592347,-0.479651596421,0.65929592347,-0.479651596421,0.326294246422,0.314305487216
9600000000.0,0.329994203786,0.31539051354,0.655282531951,-0.482519374121,0.655282531951,-0.482519374121,0.329994203786,0.31539051354
9700000000.0,0.33369294646,0.316428747074,0.651266664868,-0.48534165164,0.651266664868,-0.48534165164,0.33369294646,0.316428747074
9800000000.0,0.337389856242,0.317420523391,0.647248926874,-0.488118777139,0.647248926874,-0.488118777139,0.337389856242,0.317420523391
9900000000.0,0.341084327052,0.318366185284,0.643229910334,-0.490851105998,0.643229910334,-0.490851105998,0.341084327052,0.318366185284
10000000000.0,0.344775764938,0.319266082404,0.639210195321,-0.493539000452,0.639210195321,-0.493539000452,0.344775764938,0.319266082404
