freq (GHz),S11_real,S11_imag,S21_real,S21_imag,S12_real,S12_imag,S22_real,S22_imag
100000000.0,0.00297757115604,0.0003902184716,0.997021238803,-0.00057784975676,0.997021238803,-0.00057784975676,0.00297757115604,0.0003902184716
200000000.0,0.00299783053461,0.000780398654379,0.99700075414,-0.0011556619092,0.99700075414,-0.0011556619092,0.00299783053461,0.000780398654379
300000000.0,0.00301325231307,0.0011705555915,0.996985071834,-0.00173345189054,0.996985071834,-0.00173345189054,0.00301325231307,0.0011705555915
400000000.0,0.00302642414883,0.00156069421695,0.996971604225,-0.00231122493861,0.996971604225,-0.00231122493861,0.00302642414883,0.00156069421695
500000000.0,0.00303834419779,0.00195081710371,0.996959353156,-0.00288898388721,0.996959353156,-0.00288898388721,0.00303834419779,0.00195081710371
600000000.0,0.00304952229902,0.0023409257758,0.996947808786,-0.00346673049323,0.996947808786,-0.00346673049323,0.00304952229902,0.0023409257758
700000000.0,0.00306026008578,0.00273102118052,0.996936669481,-0.00404446591636,0.996936669481,-0.00404446591635,0.00306026008578,0.00273102118052
800000000.0,0.0030707532775,0.00312110390763,0.996925739518,-0.0046221909432,0.996925739518,-0.0046221909432,0.0030707532775,0.00312110390763
900000000.0,0.00308113725064,0.00351117430752,0.996914883519,-0.00519990610806,0.996914883519,-0.00519990610806,0.00308113725064,0.00351117430752
1000000000.0,0.00309151015062,0.00390123256097,0.996904003337,-0.00577761176517,0.996904003337,-0.00577761176517,0.00309151015062,0.00390123256097
1100000000.0,0.00310194574659,0.00429127872375,0.996893025201,-0.00635530813462,0.996893025201,-0.00635530813462,0.00310194574659,0.00429127872375
1200000000.0,0.00311250109513,0.00468131275638,0.996881892051,-0.0069329953334,0.996881892051,-0.0069329953334,0.00311250109513,0.00468131275638
1300000000.0,0.00312322136472,0.0050713345449,0.996870558716,-0.00751067339717,0.996870558716,-0.00751067339717,0.00312322136472,0.0050713345449
1400000000.0,0.00313414300833,0.00546134391611,0.996858988742,-0.00808834229594,0.996858988742,-0.00808834229594,0.00313414300833,0.00546134391611
1500000000.0,0.00314529592672,0.00585134064852,0.996847152224,-0.00866600194609,0.996847152224,-0.00866600194609,0.00314529592672,0.00585134064852
1600000000.0,0.00315670498828,0.00624132448102,0.996835024293,-0.0092436522192,0.996835024293,-0.0092436522192,0.00315670498828,0.00624132448102
1700000000.0,0.00316839112515,0.00663129511942,0.996822584012,-0.00982129294911,0.996822584012,-0.00982129294911,0.00316839112515,0.00663129511942
1800000000.0,0.00318037214115,0.0070212522416,0.996809813576,-0.0103989239376,0.996809813576,-0.0103989239376,0.00318037214115,0.0070212522416
1900000000.0,0.00319266331897,0.00741119550186,0.996796697698,-0.0109765449587,0.996796697698,-0.0109765449587,0.00319266331897,0.00741119550186
2000000000.0,0.00320527788446,0.00780112453406,0.99678322315,-0.0115541557624,0.99678322315,-0.0115541557624,0.00320527788446,0.00780112453406
2100000000.0,0.00321822736677,0.00819103895455,0.9967693784,-0.0121317560779,0.9967693784,-0.0121317560779,0.00321822736677,0.00819103895455
2200000000.0,0.00323152188179,0.00858093836443,0.996755153329,-0.0127093456156,0.996755153329,-0.0127093456156,0.00323152188179,0.00858093836443
2300000000.0,0.00324517035762,0.00897082235149,0.996740539005,-0.01328692407,0.996740539005,-0.01328692407,0.00324517035762,0.00897082235149
2400000000.0,0.00325918071618,0.00936069049179,0.996725527504,-0.0138644911205,0.996725527504,-0.0138644911205,0.00325918071618,0.00936069049179
2500000000.0,0.00327356002068,0.0097505423511,0.996710111758,-0.0144420464339,0.996710111758,-0.0144420464339,0.00327356002068,0.0097505423511
2600000000.0,0.00328831459669,0.010140377486,0.996694285439,-0.0150195896651,0.996694285439,-0.0150195896651,0.00328831459669,0.010140377486
2700000000.0,0.00330345013216,0.0105301954451,0.996678042856,-0.0155971204584,0.996678042856,-0.0155971204584,0.00330345013216,0.0105301954451
2800000000.0,0.00331897176082,0.0109199957696,0.996661378871,-0.0161746384486,0.996661378871,-0.0161746384486,0.00331897176082,0.0109199957696
2900000000.0,0.00333488413212,0.0113097779944,0.996644288831,-0.0167521432618,0.996644288831,-0.0167521432618,0.00333488413212,0.0113097779944
3000000000.0,0.00335119147038,0.0116995416485,0.996626768509,-0.0173296345161,0.996626768509,-0.0173296345161,0.00335119147038,0.0116995416485
3100000000.0,0.00336789762488,0.0120892862557,0.996608814051,-0.0179071118225,0.996608814051,-0.0179071118225,0.00336789762488,0.0120892862557
3200000000.0,0.00338500611283,0.0124790113351,0.996590421937,-0.0184845747853,0.996590421937,-0.0184845747853,0.00338500611283,0.0124790113351
3300000000.0,0.00340252015616,0.0128687164019,0.996571588941,-0.0190620230025,0.996571588941,-0.0190620230025,0.00340252015616,0.0128687164019
3400000000.0,0.00342044271334,0.013258400967,0.9965523121,-0.0196394560669,0.9965523121,-0.0196394560669,0.00342044271334,0.013258400967
3500000000.0,0.00343877650689,0.0136480645384,0.996532588688,-0.0202168735657,0.996532588688,-0.0202168735657,0.00343877650689,0.0136480645384
3600000000.0,0.00345752404742,0.0140377066205,0.996512416191,-0.0207942750816,0.996512416191,-0.0207942750816,0.00345752404742,0.0140377066205
3700000000.0,0.00347668765457,0.0144273267153,0.996491792285,-0.0213716601926,0.996491792285,-0.0213716601926,0.00347668765457,0.0144273267153
3800000000.0,0.00349626947542,0.0148169243221,0.996470714819,-0.0219490284728,0.996470714819,-0.0219490284728,0.00349626947542,0.0148169243221
3900000000.0,0.00351627150073,0.0152064989378,0.996449181798,-0.0225263794924,0.996449181798,-0.0225263794924,0.00351627150073,0.0152064989378
4000000000.0,0.00353669557921,0.0155960500576,0.996427191369,-0.023103712818,0.996427191369,-0.023103712818,0.00353669557921,0.0155960500576
4100000000.0,0.00355754343025,0.0159855771744,0.996404741809,-0.0236810280129,0.996404741809,-0.0236810280129,0.00355754343025,0.0159855771744
4200000000.0,0.00357881665522,0.0163750797796,0.996381831513,-0.0242583246374,0.996381831513,-0.0242583246374,0.00357881665522,0.0163750797796
4300000000.0,0.00360051674749,0.0167645573631,0.996358458981,-0.0248356022488,0.996358458981,-0.0248356022488,0.00360051674749,0.0167645573631
4400000000.0,0.00362264510148,0.0171540094133,0.996334622817,-0.0254128604017,0.996334622817,-0.0254128604017,0.00362264510148,0.0171540094133
4500000000.0,0.0036452030207,0.0175434354176,0.996310321712,-0.0259900986482,0.996310321712,-0.0259900986482,0.0036452030207,0.0175434354176
4600000000.0,0.00366819172504,0.0179328348621,0.996285554441,-0.026567316538,0.996285554441,-0.026567316538,0.00366819172504,0.0179328348621
4700000000.0,0.00369161235725,0.0183222072318,0.996260319858,-0.0271445136187,0.996260319858,-0.0271445136187,0.00369161235725,0.0183222072318
4800000000.0,0.00371546598889,0.018711552011,0.996234616887,-0.0277216894356,0.996234616887,-0.0277216894356,0.00371546598889,0.018711552011
4900000000.0,0.00373975362564,0.0191008686833,0.996208444517,-0.0282988435321,0.996208444517,-0.0282988435321,0.00373975362564,0.0191008686833
5000000000.0,0.00376447621216,0.0194901567312,0.9961818018,-0.02887597545,0.9961818018,-0.02887597545,0.00376447621216,0.0194901567312
5100000000.0,0.00378963463649,0.019879415637,0.996154687842,-0.0294530847291,0.996154687842,-0.0294530847291,0.00378963463649,0.019879415637
5200000000.0,0.00381522973404,0.0202686448822,0.996127101803,-0.0300301709077,0.996127101803,-0.0300301709077,0.00381522973404,0.0202686448822
5300000000.0,0.00384126229124,0.0206578439479,0.996099042894,-0.0306072335225,0.996099042894,-0.0306072335225,0.00384126229124,0.0206578439479
5400000000.0,0.00386773304891,0.0210470123149,0.996070510367,-0.0311842721088,0.996070510367,-0.0311842721088,0.00386773304891,0.0210470123149
5500000000.0,0.00389464270528,0.0214361494634,0.996041503521,-0.0317612862004,0.996041503521,-0.0317612862004,0.00389464270528,0.0214361494634
5600000000.0,0.0039219919188,0.0218252548737,0.996012021692,-0.0323382753302,0.996012021692,-0.0323382753302,0.0039219919188,0.0218252548737
5700000000.0,0.00394978131073,0.0222143280255,0.995982064253,-0.0329152390295,0.995982064253,-0.0329152390295,0.00394978131073,0.0222143280255
5800000000.0,0.00397801146747,0.0226033683985,0.995951630615,-0.0334921768286,0.995951630615,-0.0334921768286,0.00397801146747,0.0226033683985
5900000000.0,0.00400668294276,0.0229923754721,0.995920720218,-0.0340690882568,0.995920720218,-0.0340690882568,0.00400668294276,0.0229923754721
6000000000.0,0.00403579625968,0.023381348726,0.995889332534,-0.0346459728422,0.995889332534,-0.0346459728422,0.00403579625968,0.023381348726
6100000000.0,0.00406535191248,0.0237702876393,0.995857467064,-0.0352228301123,0.995857467064,-0.0352228301123,0.00406535191248,0.0237702876393
6200000000.0,0.00409535036836,0.0241591916916,0.995825123337,-0.0357996595934,0.995825123337,-0.0357996595934,0.00409535036836,0.0241591916916
6300000000.0,0.00412579206898,0.0245480603621,0.995792300905,-0.0363764608109,0.995792300905,-0.0363764608109,0.00412579206898,0.0245480603621
6400000000.0,0.00415667743197,0.0249368931302,0.995758999345,-0.0369532332897,0.995758999345,-0.0369532332897,0.00415667743197,0.0249368931302
6500000000.0,0.00418800685228,0.0253256894756,0.995725218259,-0.0375299765537,0.995725218259,-0.0375299765537,0.00418800685228,0.0253256894756
6600000000.0,0.00421978070346,0.0257144488778,0.995690957267,-0.0381066901263,0.995690957267,-0.0381066901263,0.00421978070346,0.0257144488778
6700000000.0,0.00425199933884,0.0261031708166,0.995656216011,-0.0386833735299,0.995656216011,-0.0386833735299,0.00425199933884,0.0261031708166
6800000000.0,0.0042846630926,0.0264918547719,0.995620994152,-0.0392600262867,0.995620994152,-0.0392600262867,0.0042846630926,0.0264918547719
6900000000.0,0.00431777228082,0.0268805002238,0.995585291368,-0.039836647918,0.995585291368,-0.039836647918,0.00431777228082,0.0268805002238
7000000000.0,0.00435132720244,0.0272691066527,0.995549107356,-0.0404132379447,0.995549107356,-0.0404132379447,0.00435132720244,0.0272691066527
7100000000.0,0.00438532814012,0.027657673539,0.995512441827,-0.040989795887,0.995512441827,-0.040989795887,0.00438532814012,0.027657673539
7200000000.0,0.0044197753611,0.0280462003635,0.99547529451,-0.0415663212648,0.99547529451,-0.0415663212648,0.0044197753611,0.0280462003635
7300000000.0,0.00445466911797,0.0284346866074,0.995437665146,-0.0421428135975,0.995437665146,-0.0421428135975,0.00445466911797,0.0284346866074
7400000000.0,0.00449000964939,0.028823131752,0.995399553492,-0.042719272404,0.995399553492,-0.042719272404,0.00449000964939,0.028823131752
7500000000.0,0.0045257971808,0.0292115352788,0.995360959317,-0.0432956972029,0.995360959317,-0.0432956972029,0.0045257971808,0.0292115352788
7600000000.0,0.00456203192503,0.02959989667,0.995321882403,-0.0438720875122,0.995321882403,-0.0438720875122,0.00456203192503,0.02959989667
7700000000.0,0.00459871408294,0.0299882154077,0.995282322543,-0.0444484428498,0.995282322543,-0.0444484428498,0.00459871408294,0.0299882154077
7800000000.0,0.00463584384393,0.0303764909746,0.995242279543,-0.0450247627332,0.995242279543,-0.0450247627332,0.00463584384393,0.0303764909746
7900000000.0,0.00467342138655,0.0307647228537,0.995201753219,-0.0456010466795,0.995201753219,-0.0456010466795,0.00467342138655,0.0307647228537
8000000000.0,0.00471144687892,0.0311529105283,0.995160743398,-0.0461772942057,0.995160743398,-0.0461772942057,0.00471144687892,0.0311529105283
8100000000.0,0.00474992047926,0.0315410534823,0.995119249917,-0.0467535048282,0.995119249917,-0.0467535048282,0.00474992047926,0.0315410534823
8200000000.0,0.00478884233632,0.0319291511996,0.99507727262,-0.0473296780636,0.99507727262,-0.0473296780636,0.00478884233632,0.0319291511996
8300000000.0,0.00482821258977,0.0323172031648,0.995034811363,-0.0479058134278,0.995034811363,-0.0479058134278,0.00482821258977,0.0323172031648
8400000000.0,0.00486803137064,0.032705208863,0.994991866009,-0.048481910437,0.994991866009,-0.048481910437,0.00486803137064,0.032705208863
8500000000.0,0.00490829880167,0.0330931677793,0.994948436431,-0.0490579686068,0.994948436431,-0.0490579686068,0.00490829880167,0.0330931677793
8600000000.0,0.00494901499765,0.0334810793997,0.994904522507,-0.0496339874527,0.994904522507,-0.0496339874527,0.00494901499766,0.0334810793997
8700000000.0,0.00499018006581,0.0338689432103,0.994860124126,-0.0502099664903,0.994860124126,-0.0502099664903,0.00499018006581,0.0338689432103
8800000000.0,0.00503179410605,0.0342567586977,0.994815241182,-0.0507859052347,0.994815241182,-0.0507859052347,0.00503179410605,0.0342567586977
8900000000.0,0.00507385721131,0.0346445253492,0.994769873577,-0.0513618032011,0.994769873577,-0.0513618032011,0.00507385721131,0.0346445253492
9000000000.0,0.00511636946784,0.0350322426521,0.994724021218,-0.0519376599045,0.994724021218,-0.0519376599045,0.00511636946784,0.0350322426521
9100000000.0,0.00515933095542,0.0354199100946,0.994677684021,-0.0525134748599,0.994677684021,-0.0525134748599,0.00515933095542,0.0354199100946
9200000000.0,0.0052027417477,0.0358075271651,0.994630861906,-0.0530892475821,0.994630861906,-0.0530892475821,0.0052027417477,0.0358075271651
9300000000.0,0.00524660191235,0.0361950933527,0.9945835548,-0.0536649775858,0.9945835548,-0.0536649775858,0.00524660191236,0.0361950933527
9400000000.0,0.00529091151138,0.0365826081466,0.994535762635,-0.0542406643857,0.994535762635,-0.0542406643857,0.00529091151138,0.0365826081466
9500000000.0,0.00533567060126,0.0369700710369,0.99448748535,-0.0548163074965,0.99448748535,-0.0548163074965,0.00533567060126,0.0369700710369
9600000000.0,0.00538087923322,0.037357481514,0.994438722888,-0.0553919064328,0.994438722888,-0.0553919064328,0.00538087923322,0.037357481514
9700000000.0,0.0054265374534,0.0377448390686,0.994389475196,-0.0559674607091,0.994389475196,-0.0559674607091,0.0054265374534,0.0377448390686
9800000000.0,0.00547264530302,0.0381321431923,0.994339742228,-0.05654296984,0.994339742228,-0.05654296984,0.00547264530302,0.0381321431923
9900000000.0,0.00551920281861,0.0385193933769,0.994289523942,-0.05711843334,0.994289523942,-0.05711843334,0.00551920281861,0.0385193933769
10000000000.0,0.00556621003214,0.0389065891148,0.9942388203,-0.0576938507237,0.9942388203,-0.0576938507237,0.00556621003214,0.0389065891148
