freq (GHz),S11_real,S11_imag,S21_real,S21_imag,S12_real,S12_imag,S22_real,S22_imag
100000000.0,0.00070523599357,-0.000195704080653,0.999288875722,-0.00212076694132,0.999288875722,-0.00212076694132,0.00070523599357,-0.000195704080653
200000000.0,0.000707634490493,-0.000391434439979,0.999276221321,-0.00424154120594,0.999276221321,-0.00424154120594,0.000707634490493,-0.000391434439979
300000000.0,0.000707963314866,-0.000587188749619,0.999260268424,-0.00636234084991,0.999260268424,-0.00636234084991,0.000707963314866,-0.000587188749619
400000000.0,0.000706834541946,-0.00078296733668,0.999240404248,-0.00848317440982,0.999240404248,-0.00848317440982,0.000706834541946,-0.00078296733668
500000000.0,0.00070448339432,-0.000978770543284,0.999216392744,-0.0106040469132,0.999216392744,-0.0106040469132,0.00070448339432,-0.000978770543284
600000000.0,0.000701029512843,-0.00117459846793,0.999188113342,-0.0127249613251,0.999188113342,-0.0127249613251,0.000701029512843,-0.00117459846793
700000000.0,0.000696543332186,-0.00137045092846,0.999155494594,-0.0148459191933,0.999155494594,-0.0148459191933,0.000696543332186,-0.00137045092846
800000000.0,0.000691070292123,-0.00156632747066,0.999118489974,-0.0169669210049,0.999118489974,-0.0169669210049,0.000691070292122,-0.00156632747066
900000000.0,0.000684641612277,-0.0017622273873,0.999077067114,-0.019087966409,0.999077067114,-0.019087966409,0.000684641612277,-0.0017622273873
1000000000.0,0.000677279751323,-0.00195814973826,0.999031202352,-0.0212090543674,0.999031202352,-0.0212090543674,0.000677279751323,-0.00195814973826
1100000000.0,0.000669001440641,-0.00215409336921,0.998980877706,-0.023330183262,0.998980877706,-0.023330183262,0.000669001440641,-0.00215409336921
1200000000.0,0.000659819491578,-0.00235005692802,0.998926079075,-0.0254513509759,0.998926079075,-0.0254513509759,0.000659819491577,-0.00235005692802
1300000000.0,0.00064974393236,-0.00254603887939,0.998866795103,-0.0275725549549,0.998866795103,-0.0275725549549,0.00064974393236,-0.00254603887939
1400000000.0,0.000638782755402,-0.00274203751761,0.99880301644,-0.0296937922572,0.99880301644,-0.0296937922572,0.000638782755402,-0.00274203751761
1500000000.0,0.000626942426637,-0.00293805097771,0.998734735237,-0.0318150595933,0.998734735237,-0.0318150595933,0.000626942426637,-0.00293805097771
1600000000.0,0.000614228243387,-0.00313407724544,0.998661944793,-0.0339363533587,0.998661944793,-0.0339363533587,0.000614228243387,-0.00313407724544
1700000000.0,0.000600644592398,-0.00333011416611,0.998584639298,-0.0360576696617,0.998584639298,-0.0360576696617,0.000600644592398,-0.00333011416611
1800000000.0,0.000586195140131,-0.00352615945241,0.998502813649,-0.0381790043468,0.998502813649,-0.0381790043468,0.000586195140131,-0.00352615945241
1900000000.0,0.000570882975851,-0.00372221069156,0.998416463308,-0.0403003530147,0.998416463308,-0.0403003530147,0.000570882975851,-0.00372221069156
2000000000.0,0.000554710721114,-0.00391826535171,0.998325584196,-0.0424217110401,0.998325584196,-0.0424217110401,0.000554710721113,-0.00391826535171
2100000000.0,0.000537680614819,-0.0041143207878,0.998230172614,-0.0445430735866,0.998230172614,-0.0445430735866,0.000537680614818,-0.0041143207878
2200000000.0,0.000519794580215,-0.00431037424688,0.998130225174,-0.0466644356203,0.998130225174,-0.0466644356203,0.000519794580215,-0.00431037424688
2300000000.0,0.000501054278337,-0.004506422873,0.998025738752,-0.0487857919222,0.998025738752,-0.0487857919222,0.000501054278337,-0.004506422873
2400000000.0,0.000481461151103,-0.00470246371175,0.997916710442,-0.0509071370981,0.997916710442,-0.0509071370981,0.000481461151103,-0.00470246371175
2500000000.0,0.000461016456442,-0.0048984937144,0.99780313753,-0.053028465589,0.99780313753,-0.053028465589,0.000461016456442,-0.0048984937144
2600000000.0,0.000439721297188,-0.00509450974181,0.997685017464,-0.0551497716796,0.997685017464,-0.0551497716796,0.000439721297188,-0.00509450974181
2700000000.0,0.000417576645055,-0.00529050856803,0.997562347829,-0.0572710495059,0.997562347829,-0.0572710495059,0.000417576645055,-0.00529050856803
2800000000.0,0.000394583360699,-0.00548648688371,0.997435126336,-0.0593922930629,0.997435126336,-0.0593922930629,0.000394583360699,-0.00548648688371
2900000000.0,0.00037074221062,-0.00568244129919,0.997303350798,-0.0615134962109,0.997303350798,-0.0615134962109,0.00037074221062,-0.00568244129919
3000000000.0,0.000346053881509,-0.0058783683476,0.997167019127,-0.0636346526818,0.997167019127,-0.0636346526818,0.000346053881508,-0.0058783683476
3100000000.0,0.000320518992504,-0.00607426448756,0.997026129316,-0.0657557560846,0.997026129316,-0.0657557560846,0.000320518992504,-0.00607426448756
3200000000.0,0.000294138105726,-0.00627012610588,0.996880679432,-0.0678767999104,0.996880679432,-0.0678767999104,0.000294138105725,-0.00627012610588
3300000000.0,0.000266911735377,-0.0064659495201,0.996730667613,-0.069997777538,0.996730667613,-0.069997777538,0.000266911735377,-0.0064659495201
3400000000.0,0.00023884035566,-0.00666173098082,0.996576092054,-0.0721186822373,0.996576092054,-0.0721186822373,0.00023884035566,-0.00666173098082
3500000000.0,0.000209924407684,-0.00685746667402,0.996416951007,-0.0742395071745,0.996416951007,-0.0742395071745,0.000209924407684,-0.00685746667402
3600000000.0,0.000180164305537,-0.00705315272317,0.996253242774,-0.0763602454153,0.996253242774,-0.0763602454153,0.000180164305537,-0.00705315272317
3700000000.0,0.000149560441631,-0.00724878519134,0.996084965706,-0.0784808899292,0.996084965706,-0.0784808899292,0.000149560441631,-0.00724878519134
3800000000.0,0.000118113191439,-0.00744436008314,0.995912118194,-0.0806014335925,0.995912118194,-0.0806014335925,0.000118113191439,-0.00744436008314
3900000000.0,8.58229177128e-05,-0.00763987334662,0.995734698671,-0.0827218691916,0.995734698671,-0.0827218691916,8.58229177128e-05,-0.00763987334662
4000000000.0,5.2689974237e-05,-0.00783532087507,0.995552705608,-0.0848421894265,0.995552705608,-0.0848421894265,5.26899742372e-05,-0.00783532087507
4100000000.0,1.87147092043e-05,-0.00803069850877,0.995366137509,-0.0869623869133,0.995366137509,-0.0869623869133,1.87147092046e-05,-0.00803069850877
4200000000.0,-1.61025317607e-05,-0.00822600203666,0.995174992915,-0.089082454187,0.995174992915,-0.089082454187,-1.61025317608e-05,-0.00822600203666
4300000000.0,-5.17614028577e-05,-0.0084212271979,0.994979270396,-0.0912023837044,0.994979270396,-0.0912023837044,-5.17614028577e-05,-0.0084212271979
4400000000.0,-8.82615556476e-05,-0.0086163696835,0.994778968554,-0.0933221678461,0.994778968554,-0.0933221678461,-8.82615556476e-05,-0.0086163696835
4500000000.0,-0.000125602636796,-0.00881142513775,0.994574086019,-0.0954417989195,0.994574086019,-0.0954417989195,-0.000125602636796,-0.00881142513775
4600000000.0,-0.00016378428603,-0.00900638915968,0.99436462145,-0.0975612691605,0.99436462145,-0.0975612691605,-0.00016378428603,-0.00900638915968
4700000000.0,-0.000202806134273,-0.00920125730446,0.994150573533,-0.0996805707359,0.994150573533,-0.0996805707359,-0.000202806134273,-0.00920125730446
4800000000.0,-0.000242667801927,-0.00939602508474,0.993931940978,-0.101799695745,0.993931940978,-0.101799695745,-0.000242667801927,-0.00939602508474
4900000000.0,-0.00028336889731,-0.00959068797195,0.993708722525,-0.103918636224,0.993708722525,-0.103918636224,-0.00028336889731,-0.00959068797195
5000000000.0,-0.000324909015204,-0.0097852413976,0.993480916935,-0.106037384142,0.993480916935,-0.106037384142,-0.000324909015204,-0.0097852413976
5100000000.0,-0.000367287735524,-0.00997968075444,0.993248522995,-0.10815593141,0.993248522995,-0.10815593141,-0.000367287735524,-0.00997968075444
5200000000.0,-0.000410504622093,-0.0101740013977,0.993011539516,-0.110274269877,0.993011539516,-0.110274269877,-0.000410504622093,-0.0101740013977
5300000000.0,-0.000454559221487,-0.0103681986464,0.992769965332,-0.112392391337,0.992769965332,-0.112392391337,-0.000454559221487,-0.0103681986464
5400000000.0,-0.00049945106199,-0.0105622677839,0.992523799301,-0.114510287524,0.992523799301,-0.114510287524,-0.00049945106199,-0.0105622677839
5500000000.0,-0.000545179652602,-0.0107562040599,0.992273040304,-0.116627950119,0.992273040304,-0.116627950119,-0.000545179652602,-0.0107562040599
5600000000.0,-0.000591744482121,-0.0109500026907,0.992017687243,-0.11874537075,0.992017687243,-0.11874537075,-0.000591744482122,-0.0109500026907
5700000000.0,-0.000639145018298,-0.0111436588607,0.991757739046,-0.12086254099,0.991757739046,-0.12086254099,-0.000639145018297,-0.0111436588607
5800000000.0,-0.000687380707018,-0.0113371677231,0.991493194659,-0.122979452364,0.991493194659,-0.122979452364,-0.000687380707017,-0.0113371677231
5900000000.0,-0.000736450971569,-0.0115305244012,0.991224053055,-0.125096096348,0.991224053055,-0.125096096348,-0.000736450971569,-0.0115305244012
6000000000.0,-0.000786355211935,-0.0117237239891,0.990950313225,-0.127212464367,0.990950313225,-0.127212464367,-0.000786355211934,-0.0117237239891
6100000000.0,-0.000837092804133,-0.0119167615529,0.990671974185,-0.129328547802,0.990671974185,-0.129328547802,-0.000837092804133,-0.0119167615529
6200000000.0,-0.0008886630996,-0.0121096321314,0.990389034971,-0.131444337986,0.990389034971,-0.131444337986,-0.0008886630996,-0.0121096321314
6300000000.0,-0.000941065424608,-0.0123023307369,0.990101494643,-0.13355982621,0.990101494643,-0.13355982621,-0.000941065424608,-0.0123023307369
6400000000.0,-0.000994299079719,-0.0124948523564,0.989809352281,-0.135675003719,0.989809352281,-0.135675003719,-0.000994299079718,-0.0124948523564
6500000000.0,-0.00104836333926,-0.0126871919523,0.989512606988,-0.137789861716,0.989512606988,-0.137789861716,-0.00104836333926,-0.0126871919523
6600000000.0,-0.00110325745085,-0.0128793444632,0.989211257889,-0.139904391365,0.989211257889,-0.139904391365,-0.00110325745085,-0.0128793444632
6700000000.0,-0.00115898063491,-0.0130713048047,0.988905304132,-0.142018583788,0.988905304132,-0.142018583788,-0.00115898063491,-0.0130713048047
6800000000.0,-0.00121553208428,-0.0132630678702,0.988594744884,-0.144132430066,0.988594744884,-0.144132430066,-0.00121553208428,-0.0132630678702
6900000000.0,-0.00127291096373,-0.0134546285321,0.988279579338,-0.146245921244,0.988279579338,-0.146245921244,-0.00127291096373,-0.0134546285321
7000000000.0,-0.00133111640966,-0.0136459816417,0.987959806706,-0.148359048329,0.987959806706,-0.148359048329,-0.00133111640966,-0.0136459816417
7100000000.0,-0.00139014752964,-0.0138371220308,0.987635426223,-0.150471802291,0.987635426223,-0.150471802291,-0.00139014752964,-0.0138371220308
7200000000.0,-0.00145000340213,-0.014028044512,0.987306437148,-0.152584174065,0.987306437148,-0.152584174065,-0.00145000340213,-0.014028044512
7300000000.0,-0.0015106830761,-0.0142187438797,0.986972838759,-0.154696154549,0.986972838759,-0.154696154549,-0.0015106830761,-0.0142187438797
7400000000.0,-0.00157218557077,-0.0144092149104,0.98663463036,-0.15680773461,0.98663463036,-0.15680773461,-0.00157218557077,-0.0144092149104
7500000000.0,-0.00163450987524,-0.0145994523638,0.986291811274,-0.15891890508,0.986291811274,-0.15891890508,-0.00163450987524,-0.0145994523638
7600000000.0,-0.00169765494824,-0.0147894509833,0.985944380849,-0.161029656758,0.985944380849,-0.161029656758,-0.00169765494824,-0.0147894509833
7700000000.0,-0.00176161971789,-0.0149792054968,0.985592338455,-0.163139980414,0.985592338455,-0.163139980414,-0.00176161971789,-0.0149792054968
7800000000.0,-0.00182640308139,-0.0151687106172,0.985235683483,-0.165249866783,0.985235683483,-0.165249866783,-0.00182640308139,-0.0151687106172
7900000000.0,-0.00189200390481,-0.0153579610431,0.984874415349,-0.167359306572,0.984874415349,-0.167359306572,-0.00189200390481,-0.0153579610431
8000000000.0,-0.00195842102285,-0.0155469514596,0.984508533491,-0.16946829046,0.984508533491,-0.16946829046,-0.00195842102285,-0.0155469514596
8100000000.0,-0.00202565323861,-0.0157356765387,0.98413803737,-0.171576809093,0.98413803737,-0.171576809093,-0.00202565323861,-0.0157356765387
8200000000.0,-0.0020936993234,-0.0159241309402,0.983762926468,-0.173684853094,0.983762926468,-0.173684853094,-0.0020936993234,-0.0159241309402
8300000000.0,-0.00216255801653,-0.0161123093118,0.983383200294,-0.175792413053,0.983383200294,-0.175792413053,-0.00216255801654,-0.0161123093118
8400000000.0,-0.00223222802514,-0.0163002062905,0.982998858375,-0.177899479538,0.982998858375,-0.177899479538,-0.00223222802514,-0.0163002062905
8500000000.0,-0.00230270802396,-0.0164878165024,0.982609900267,-0.180006043087,0.982609900267,-0.180006043087,-0.00230270802396,-0.0164878165024
8600000000.0,-0.00237399665523,-0.0166751345638,0.982216325544,-0.182112094214,0.982216325544,-0.182112094214,-0.00237399665523,-0.0166751345638
8700000000.0,-0.00244609252848,-0.0168621550814,0.981818133807,-0.184217623407,0.981818133807,-0.184217623407,-0.00244609252848,-0.0168621550814
8800000000.0,-0.00251899422038,-0.0170488726533,0.981415324679,-0.186322621132,0.981415324679,-0.186322621132,-0.00251899422038,-0.0170488726533
8900000000.0,-0.00259270027463,-0.0172352818691,0.981007897806,-0.188427077827,0.981007897806,-0.188427077827,-0.00259270027463,-0.0172352818691
9000000000.0,-0.00266720920177,-0.0174213773109,0.980595852859,-0.19053098391,0.980595852859,-0.19053098391,-0.00266720920177,-0.0174213773109
9100000000.0,-0.00274251947912,-0.0176071535535,0.98017918953,-0.192634329775,0.98017918953,-0.192634329775,-0.00274251947912,-0.0176071535535
9200000000.0,-0.00281862955059,-0.0177926051649,0.979757907539,-0.194737105792,0.979757907539,-0.194737105792,-0.00281862955059,-0.0177926051649
9300000000.0,-0.00289553782659,-0.0179777267072,0.979332006626,-0.196839302312,0.979332006626,-0.196839302312,-0.00289553782659,-0.0179777267072
9400000000.0,-0.00297324268395,-0.0181625127369,0.978901486556,-0.198940909663,0.978901486556,-0.198940909663,-0.00297324268395,-0.0181625127369
9500000000.0,-0.00305174246577,-0.0183469578052,0.978466347119,-0.201041918152,0.978466347119,-0.201041918152,-0.00305174246577,-0.0183469578052
9600000000.0,-0.00313103548136,-0.0185310564589,0.978026588128,-0.203142318066,0.978026588128,-0.203142318066,-0.00313103548136,-0.0185310564589
9700000000.0,-0.00321112000613,-0.0187148032406,0.97758220942,-0.205242099672,0.97758220942,-0.205242099672,-0.00321112000613,-0.0187148032406
9800000000.0,-0.0032919942815,-0.0188981926893,0.977133210857,-0.207341253219,0.977133210857,-0.207341253219,-0.0032919942815,-0.0188981926893
9900000000.0,-0.00337365651486,-0.0190812193412,0.976679592324,-0.209439768934,0.976679592324,-0.209439768934,-0.00337365651486,-0.0190812193412
10000000000.0,-0.00345610487945,-0.0192638777293,0.976221353731,-0.211537637029,0.976221353731,-0.211537637029,-0.00345610487945,-0.0192638777293
