freq (GHz),S11_real,S11_imag,S21_real,S21_imag,S12_real,S12_imag,S22_real,S22_imag
100000000.0,0.00695990687002,0.00137937027617,0.993036655946,-0.00283434449375,0.993036655946,-0.00283434449375,0.00695990687002,0.00137937027617
200000000.0,0.0070169698048,0.00275830519246,0.992975033802,-0.00566826375914,0.992975033802,-0.00566826375914,0.0070169698048,0.00275830519246
300000000.0,0.00706965500763,0.00413691224839,0.992915667188,-0.00850187250619,0.992915667188,-0.00850187250619,0.00706965500763,0.00413691224839
400000000.0,0.00712397347367,0.00551519650993,0.992852544907,-0.0113351813371,0.992852544907,-0.0113351813371,0.00712397347367,0.00551519650993
500000000.0,0.00718224076456,0.00689313924993,0.992783351163,-0.0141681762178,0.992783351163,-0.0141681762178,0.00718224076456,0.00689313924993
600000000.0,0.00724563751975,0.00827071122799,0.992706905055,-0.0170008320498,0.992706905055,-0.0170008320498,0.00724563751975,0.00827071122799
700000000.0,0.00731486053324,0.00964787745943,0.992622509496,-0.0198331175882,0.992622509496,-0.0198331175882,0.00731486053324,0.00964787745943
800000000.0,0.00739036042789,0.0110245994272,0.992529713539,-0.0226649977422,0.992529713539,-0.0226649977422,0.00739036042789,0.0110245994272
900000000.0,0.00747244750089,0.0124008362702,0.992428206538,-0.0254964348221,0.992428206538,-0.0254964348221,0.00747244750089,0.0124008362702
1000000000.0,0.00756134538428,0.0137765454866,0.992317764483,-0.0283273892847,0.992317764483,-0.0283273892847,0.00756134538428,0.0137765454866
1100000000.0,0.00765722087922,0.0151516833819,0.992198220168,-0.0311578202106,0.992198220168,-0.0311578202106,0.00765722087922,0.0151516833819
1200000000.0,0.00776020173613,0.0165262053688,0.992069445414,-0.0339876856279,0.992069445414,-0.0339876856279,0.00776020173613,0.0165262053688
1300000000.0,0.0078703878428,0.0179000661772,0.991931339876,-0.0368169427405,0.991931339876,-0.0368169427405,0.0078703878428,0.0179000661772
1400000000.0,0.00798785857932,0.0192732200063,0.991783823694,-0.0396455480948,0.991783823694,-0.0396455480948,0.00798785857932,0.0192732200063
1500000000.0,0.00811267783062,0.0206456206386,0.99162683248,-0.0424734577056,0.99162683248,-0.0424734577056,0.00811267783062,0.0206456206386
1600000000.0,0.00824489750748,0.022017221526,0.991460313793,-0.0453006271527,0.991460313793,-0.0453006271527,0.00824489750748,0.022017221526
1700000000.0,0.00838456008432,0.0233879758583,0.991284224609,-0.048127011657,0.991284224609,-0.048127011657,0.00838456008432,0.0233879758583
1800000000.0,0.00853170046934,0.0247578366166,0.991098529445,-0.0509525661422,0.991098529445,-0.0509525661422,0.00853170046934,0.0247578366166
1900000000.0,0.00868634740966,0.0261267566172,0.990903198956,-0.0537772452842,0.990903198956,-0.0537772452842,0.00868634740966,0.0261267566172
2000000000.0,0.00884852456507,0.0274946885473,0.990698208865,-0.0566010035527,0.990698208865,-0.0566010035527,0.00884852456507,0.0274946885473
2100000000.0,0.00901825134115,0.0288615849951,0.990483539126,-0.0594237952459,0.990483539126,-0.0594237952459,0.00901825134115,0.0288615849951
2200000000.0,0.00919554354437,0.0302273984747,0.99025917327,-0.0622455745196,0.99025917327,-0.0622455745196,0.00919554354437,0.0302273984747
2300000000.0,0.00938041390352,0.0315920814479,0.990025097885,-0.0650662954129,0.990025097885,-0.0650662954129,0.00938041390352,0.0315920814479
2400000000.0,0.00957287248934,0.0329555863424,0.989781302198,-0.0678859118697,0.989781302198,-0.0678859118697,0.00957287248934,0.0329555863424
2500000000.0,0.00977292705557,0.0343178655682,0.98952777773,-0.0707043777582,0.98952777773,-0.0707043777582,0.00977292705557,0.0343178655682
2600000000.0,0.00998058331871,0.0356788715317,0.989264518022,-0.0735216468878,0.989264518022,-0.0735216468878,0.00998058331871,0.0356788715317
2700000000.0,0.0101958451894,0.0370385566481,0.988991518398,-0.076337673024,0.988991518398,-0.076337673024,0.0101958451894,0.0370385566481
2800000000.0,0.0104187149655,0.0383968733529,0.988708775776,-0.0791524099021,0.988708775776,-0.0791524099021,0.0104187149655,0.0383968733529
2900000000.0,0.0106491934935,0.0397537741121,0.988416288508,-0.0819658112394,0.988416288508,-0.0819658112394,0.0106491934935,0.0397537741121
3000000000.0,0.0108872803062,0.041109211431,0.988114056238,-0.0847778307464,0.988114056238,-0.0847778307464,0.0108872803062,0.041109211431
3100000000.0,0.0111329737383,0.042463137863,0.987802079791,-0.0875884221367,0.987802079791,-0.0875884221367,0.0111329737383,0.042463137863
3200000000.0,0.0113862710265,0.043815506017,0.987480361069,-0.0903975391368,0.987480361069,-0.0903975391368,0.0113862710265,0.043815506017
3300000000.0,0.0116471683949,0.0451662685647,0.987148902971,-0.0932051354944,0.987148902971,-0.0932051354944,0.0116471683949,0.0451662685647
3400000000.0,0.0119156611292,0.0465153782474,0.986807709313,-0.0960111649865,0.986807709313,-0.0960111649865,0.0119156611292,0.0465153782474
3500000000.0,0.0121917436409,0.047862787882,0.986456784769,-0.0988155814272,0.986456784769,-0.0988155814272,0.0121917436409,0.047862787882
3600000000.0,0.0124754095234,0.0492084503666,0.986096134813,-0.101618338674,0.986096134813,-0.101618338674,0.0124754095234,0.0492084503666
3700000000.0,0.0127666516016,0.0505523186864,0.98572576567,-0.104419390636,0.98572576567,-0.104419390636,0.0127666516016,0.0505523186864
3800000000.0,0.0130654619749,0.0518943459188,0.985345684272,-0.107218691279,0.985345684272,-0.107218691279,0.0130654619749,0.0518943459188
3900000000.0,0.0133718320554,0.0532344852381,0.98495589822,-0.11001619463,0.98495589822,-0.11001619463,0.0133718320554,0.0532344852381
4000000000.0,0.0136857526026,0.0545726899204,0.984556415753,-0.112811854786,0.984556415753,-0.112811854786,0.0136857526026,0.0545726899204
4100000000.0,0.014007213753,0.0559089133482,0.984147245713,-0.115605625918,0.984147245713,-0.115605625918,0.014007213753,0.0559089133482
4200000000.0,0.0143362050478,0.0572431090145,0.983728397524,-0.118397462276,0.983728397524,-0.118397462276,0.0143362050478,0.0572431090145
4300000000.0,0.0146727154566,0.0585752305269,0.98329988116,-0.121187318193,0.98329988116,-0.121187318193,0.0146727154566,0.0585752305269
4400000000.0,0.0150167334002,0.0599052316118,0.982861707131,-0.123975148091,0.982861707131,-0.123975148091,0.0150167334002,0.0599052316118
4500000000.0,0.0153682467695,0.0612330661184,0.982413886458,-0.126760906487,0.982413886458,-0.126760906487,0.0153682467695,0.0612330661184
4600000000.0,0.0157272429442,0.0625586880221,0.981956430659,-0.129544547995,0.981956430659,-0.129544547995,0.0157272429442,0.0625586880221
4700000000.0,0.0160937088086,0.0638820514281,0.981489351729,-0.132326027329,0.981489351729,-0.132326027329,0.0160937088086,0.0638820514281
4800000000.0,0.0164676307671,0.0652031105754,0.981012662128,-0.135105299313,0.981012662128,-0.135105299313,0.0164676307671,0.0652031105754
4900000000.0,0.0168489947574,0.0665218198398,0.980526374765,-0.137882318877,0.980526374765,-0.137882318877,0.0168489947574,0.0665218198398
5000000000.0,0.0172377862631,0.0678381337373,0.98003050299,-0.14065704107,0.98003050299,-0.14065704107,0.0172377862631,0.0678381337373
5100000000.0,0.0176339903256,0.0691520069277,0.979525060577,-0.143429421055,0.979525060577,-0.143429421055,0.0176339903256,0.0691520069277
5200000000.0,0.0180375915546,0.0704633942174,0.979010061717,-0.146199414118,0.979010061717,-0.146199414118,0.0180375915546,0.0704633942174
5300000000.0,0.0184485741379,0.0717722505625,0.978485521007,-0.148966975671,0.978485521007,-0.148966975671,0.0184485741379,0.0717722505625
5400000000.0,0.0188669218507,0.0730785310723,0.977951453442,-0.151732061255,0.977951453442,-0.151732061255,0.0188669218507,0.0730785310723
5500000000.0,0.0192926180644,0.0743821910118,0.977407874403,-0.154494626541,0.977407874403,-0.154494626541,0.0192926180644,0.0743821910118
5600000000.0,0.0197256457543,0.0756831858049,0.976854799654,-0.157254627338,0.976854799654,-0.157254627338,0.0197256457543,0.0756831858049
5700000000.0,0.0201659875075,0.0769814710371,0.976292245333,-0.160012019594,0.976292245333,-0.160012019594,0.0201659875075,0.0769814710371
5800000000.0,0.0206136255295,0.0782770024587,0.975720227941,-0.162766759396,0.975720227941,-0.162766759396,0.0206136255295,0.0782770024587
5900000000.0,0.0210685416515,0.0795697359868,0.975138764342,-0.165518802981,0.975138764342,-0.165518802981,0.0210685416515,0.0795697359868
6000000000.0,0.0215307173363,0.080859627709,0.97454787175,-0.168268106731,0.97454787175,-0.168268106731,0.0215307173363,0.080859627709
6100000000.0,0.0220001336845,0.0821466338854,0.97394756773,-0.171014627179,0.97394756773,-0.171014627179,0.0220001336845,0.0821466338854
6200000000.0,0.0224767714399,0.0834307109513,0.973337870185,-0.173758321016,0.973337870185,-0.173758321016,0.0224767714399,0.0834307109513
6300000000.0,0.0229606109954,0.08471181552,0.972718797359,-0.176499145086,0.972718797359,-0.176499145086,0.0229606109954,0.08471181552
6400000000.0,0.0234516323979,0.0859899043854,0.972090367823,-0.179237056397,0.972090367823,-0.179237056397,0.0234516323979,0.0859899043854
6500000000.0,0.0239498153534,0.0872649345241,0.971452600478,-0.181972012117,0.971452600478,-0.181972012117,0.0239498153534,0.0872649345241
6600000000.0,0.0244551392314,0.0885368630982,0.970805514543,-0.18470396958,0.970805514543,-0.18470396958,0.0244551392314,0.0885368630982
6700000000.0,0.0249675830702,0.0898056474577,0.970149129559,-0.187432886291,0.970149129559,-0.187432886291,0.0249675830702,0.0898056474577
6800000000.0,0.0254871255807,0.0910712451428,0.969483465376,-0.190158719924,0.969483465376,-0.190158719924,0.0254871255807,0.0910712451428
6900000000.0,0.026013745151,0.0923336138864,0.968808542154,-0.192881428326,0.968808542154,-0.192881428326,0.026013745151,0.0923336138864
7000000000.0,0.0265474198503,0.093592711616,0.968124380358,-0.195600969522,0.968124380358,-0.195600969522,0.0265474198503,0.093592711616
7100000000.0,0.0270881274334,0.0948484964566,0.967431000753,-0.198317301715,0.967431000753,-0.198317301715,0.0270881274334,0.0948484964566
7200000000.0,0.027635845344,0.0961009267325,0.966728424401,-0.201030383289,0.966728424401,-0.201030383289,0.027635845344,0.0961009267325
7300000000.0,0.028190550719,0.0973499609696,0.966016672658,-0.203740172813,0.966016672658,-0.203740172813,0.028190550719,0.0973499609696
7400000000.0,0.0287522203918,0.0985955578979,0.965295767168,-0.206446629041,0.965295767168,-0.206446629041,0.0287522203918,0.0985955578979
7500000000.0,0.0293208308963,0.099837676453,0.964565729862,-0.209149710916,0.964565729862,-0.209149710916,0.0293208308963,0.099837676453
7600000000.0,0.0298963584702,0.101076275779,0.963826582953,-0.211849377571,0.963826582953,-0.211849377571,0.0298963584702,0.101076275779
7700000000.0,0.0304787790587,0.10231131523,0.963078348932,-0.214545588332,0.963078348932,-0.214545588332,0.0304787790587,0.10231131523
7800000000.0,0.0310680683176,0.103542754371,0.962321050568,-0.217238302723,0.962321050568,-0.217238302723,0.0310680683176,0.103542754371
7900000000.0,0.031664201617,0.104770552985,0.961554710899,-0.219927480463,0.961554710899,-0.219927480463,0.031664201617,0.104770552985
8000000000.0,0.0322671540442,0.105994671067,0.960779353235,-0.22261308147,0.960779353235,-0.22261308147,0.0322671540442,0.105994671067
8100000000.0,0.0328769004074,0.107215068833,0.95999500115,-0.225295065867,0.95999500115,-0.225295065867,0.0328769004074,0.107215068833
8200000000.0,0.0334934152385,0.108431706717,0.959201678482,-0.227973393979,0.959201678482,-0.227973393979,0.0334934152385,0.108431706717
8300000000.0,0.0341166727965,0.109644545377,0.958399409328,-0.230648026336,0.958399409328,-0.230648026336,0.0341166727965,0.109644545377
8400000000.0,0.0347466470707,0.110853545694,0.957588218041,-0.233318923678,0.957588218041,-0.233318923678,0.0347466470707,0.110853545694
8500000000.0,0.0353833117835,0.112058668774,0.956768129229,-0.235986046955,0.956768129229,-0.235986046955,0.0353833117835,0.112058668774
8600000000.0,0.0360266403935,0.113259875953,0.955939167749,-0.238649357327,0.955939167749,-0.238649357327,0.0360266403935,0.113259875953
8700000000.0,0.0366766060987,0.114457128793,0.955101358706,-0.24130881617,0.955101358706,-0.24130881617,0.0366766060987,0.114457128793
8800000000.0,0.0373331818396,0.11565038909,0.95425472745,-0.243964385076,0.95425472745,-0.243964385076,0.0373331818396,0.11565038909
8900000000.0,0.0379963403018,0.11683961887,0.953399299572,-0.246616025852,0.953399299572,-0.246616025852,0.0379963403018,0.11683961887
9000000000.0,0.0386660539192,0.118024780397,0.952535100902,-0.249263700528,0.952535100902,-0.249263700528,0.0386660539192,0.118024780397
9100000000.0,0.0393422948767,0.119205836167,0.951662157506,-0.251907371353,0.951662157506,-0.251907371353,0.0393422948767,0.119205836167
9200000000.0,0.0400250351137,0.120382748918,0.950780495684,-0.254547000799,0.950780495684,-0.254547000799,0.0400250351137,0.120382748918
9300000000.0,0.0407142463261,0.121555481623,0.949890141963,-0.257182551565,0.949890141963,-0.257182551565,0.0407142463261,0.121555481623
9400000000.0,0.04140989997,0.1227239975,0.9489911231,-0.259813986573,0.9489911231,-0.259813986573,0.04140989997,0.1227239975
9500000000.0,0.0421119672641,0.123888260006,0.948083466076,-0.262441268976,0.948083466076,-0.262441268976,0.0421119672641,0.123888260006
9600000000.0,0.0428204191926,0.125048232846,0.947167198093,-0.265064362156,0.947167198093,-0.265064362156,0.0428204191926,0.125048232846
9700000000.0,0.0435352265081,0.126203879965,0.946242346573,-0.267683229725,0.946242346573,-0.267683229725,0.0435352265081,0.126203879965
9800000000.0,0.0442563597346,0.127355165561,0.945308939152,-0.27029783553,0.945308939152,-0.27029783553,0.0442563597346,0.127355165561
9900000000.0,0.0449837891699,0.128502054076,0.94436700368,-0.272908143651,0.94436700368,-0.272908143651,0.0449837891699,0.128502054076
10000000000.0,0.0457174848889,0.129644510202,0.94341656822,-0.275514118405,0.94341656822,-0.275514118405,0.0457174848889,0.129644510202
