freq (GHz),S11_real,S11_imag,S21_real,S21_imag,S12_real,S12_imag,S22_real,S22_imag
100000000.0,0.0214528725752,0.00231657323118,0.978544936789,-0.00318870602101,0.978544936789,-0.00318870602101,0.0214528725752,0.00231657323118
200000000.0,0.0216138741008,0.0046314673351,0.978381978355,-0.00637574013102,0.978381978355,-0.00637574013102,0.0216138741008,0.0046314673351
300000000.0,0.0217524958386,0.00694519525457,0.978240633325,-0.00956162028595,0.978240633325,-0.00956162028595,0.0217524958386,0.00694519525457
400000000.0,0.0218870441263,0.00925785648474,0.978102595258,-0.0127464501204,0.978102595258,-0.0127464501204,0.0218870441263,0.00925785648474
500000000.0,0.0220245771732,0.0115694543614,0.977960805835,-0.0159302366698,0.977960805835,-0.0159302366698,0.0220245771732,0.0115694543614
600000000.0,0.0221686963881,0.0138799496778,0.977811663532,-0.0191129441397,0.977811663532,-0.0191129441397,0.0221686963881,0.0138799496778
700000000.0,0.0223215284827,0.0161892799511,0.977653041512,-0.0222945132499,0.977653041512,-0.0222945132499,0.0223215284827,0.0161892799511
800000000.0,0.022484449354,0.0184973683653,0.977483563745,-0.0254748702234,0.977483563745,-0.0254748702234,0.022484449354,0.0184973683653
900000000.0,0.0226584065937,0.0208041285798,0.977302282497,-0.028653931626,0.977302282497,-0.028653931626,0.0226584065937,0.0208041285798
1000000000.0,0.0228440830588,0.0231094675808,0.977108514759,-0.0318316072392,0.977108514759,-0.0318316072392,0.0228440830588,0.0231094675808
1100000000.0,0.0230419878509,0.0254132874974,0.976901751268,-0.0350078018917,0.976901751268,-0.0350078018917,0.0230419878509,0.0254132874974
1200000000.0,0.0232525105589,0.0277154868215,0.976681602267,-0.0381824166918,0.976681602267,-0.0381824166918,0.0232525105589,0.0277154868215
1300000000.0,0.0234759554052,0.0300159612635,0.976447763354,-0.0413553498927,0.976447763354,-0.0413553498927,0.0234759554052,0.0300159612635
1400000000.0,0.023712563702,0.0323146043741,0.976199993027,-0.0445264975215,0.976199993027,-0.0445264975215,0.023712563702,0.0323146043741
1500000000.0,0.0239625291632,0.0346113080096,0.975938097376,-0.0476957538512,0.975938097376,-0.0476957538512,0.0239625291632,0.0346113080096
1600000000.0,0.0242260086645,0.0369059626883,0.97566191932,-0.0508630117624,0.97566191932,-0.0508630117624,0.0242260086645,0.0369059626883
1700000000.0,0.024503130002,0.0391984578708,0.975371330846,-0.0540281630277,0.975371330846,-0.0540281630277,0.024503130002,0.0391984578708
1800000000.0,0.0247939976134,0.0414886821836,0.975066227295,-0.057191098539,0.975066227295,-0.057191098539,0.0247939976134,0.0414886821836
1900000000.0,0.025098696879,0.0437765236006,0.974746523053,-0.0603517084929,0.974746523053,-0.0603517084929,0.025098696879,0.0437765236006
2000000000.0,0.0254172974095,0.0460618695937,0.974412148268,-0.0635098825434,0.974412148268,-0.0635098825434,0.0254172974095,0.0460618695937
2100000000.0,0.0257498555997,0.0483446072583,0.974063046297,-0.0666655099307,0.974063046297,-0.0666655099307,0.0257498555997,0.0483446072583
2200000000.0,0.0260964166374,0.0506246234205,0.973699171694,-0.0698184795897,0.973699171694,-0.0698184795897,0.0260964166374,0.0506246234205
2300000000.0,0.0264570161044,0.0529018047284,0.973320488611,-0.072968680244,0.973320488611,-0.072968680244,0.0264570161044,0.0529018047284
2400000000.0,0.0268316812651,0.0551760377316,0.97292696951,-0.0761160004872,0.97292696951,-0.0761160004872,0.0268316812651,0.0551760377316
2500000000.0,0.0272204321166,0.0574472089516,0.97251859411,-0.079260328854,0.97251859411,-0.079260328854,0.0272204321166,0.0574472089516
2600000000.0,0.0276232822494,0.0597152049426,0.972095348531,-0.0824015538838,0.972095348531,-0.0824015538838,0.0276232822494,0.0597152049426
2700000000.0,0.0280402395617,0.0619799123474,0.971657224576,-0.0855395641768,0.971657224576,-0.0855395641768,0.0280402395617,0.0619799123474
2800000000.0,0.0284713068554,0.0642412179467,0.971204219136,-0.0886742484449,0.971204219136,-0.0886742484449,0.0284713068554,0.0642412179467
2900000000.0,0.0289164823367,0.066499008704,0.97073633369,-0.0918054955581,0.97073633369,-0.0918054955581,0.0289164823367,0.066499008704
3000000000.0,0.0293757600417,0.0687531718069,0.970253573881,-0.094933194586,0.970253573881,-0.094933194586,0.0293757600417,0.0687531718069
3100000000.0,0.0298491301973,0.0710035947046,0.969755949151,-0.0980572348369,0.969755949151,-0.0980572348369,0.0298491301973,0.0710035947046
3200000000.0,0.0303365795326,0.0732501651427,0.969243472433,-0.101177505894,0.969243472433,-0.101177505894,0.0303365795326,0.0732501651427
3300000000.0,0.0308380915463,0.075492771196,0.968716159883,-0.104293897646,0.968716159883,-0.104293897646,0.0308380915463,0.075492771196
3400000000.0,0.0313536467394,0.0777313012983,0.968174030647,-0.107406300322,0.968174030647,-0.107406300322,0.0313536467394,0.0777313012983
3500000000.0,0.0318832228179,0.0799656442706,0.967617106658,-0.110514604519,0.967617106658,-0.110514604519,0.0318832228179,0.0799656442706
3600000000.0,0.0324267948706,0.0821956893484,0.96704541246,-0.113618701227,0.96704541246,-0.113618701227,0.0324267948706,0.0821956893484
3700000000.0,0.0329843355259,0.0844213262064,0.966458975047,-0.116718481857,0.966458975047,-0.116718481857,0.0329843355259,0.0844213262064
3800000000.0,0.0335558150906,0.0866424449826,0.965857823732,-0.119813838267,0.965857823732,-0.119813838267,0.0335558150906,0.0866424449826
3900000000.0,0.0341412016731,0.0888589363007,0.965241990014,-0.122904662781,0.965241990014,-0.122904662781,0.0341412016731,0.0888589363007
4000000000.0,0.034740461294,0.0910706912925,0.964611507477,-0.125990848214,0.964611507477,-0.125990848214,0.034740461294,0.0910706912925
4100000000.0,0.0353535579848,0.0932776016179,0.963966411682,-0.129072287894,0.963966411682,-0.129072287894,0.0353535579848,0.0932776016179
4200000000.0,0.0359804538774,0.095479559485,0.963306740087,-0.132148875682,0.963306740087,-0.132148875682,0.0359804538774,0.095479559485
4300000000.0,0.0366211092849,0.0976764576693,0.96263253196,-0.135220505987,0.96263253196,-0.135220505987,0.0366211092849,0.0976764576693
4400000000.0,0.0372754827751,0.099868189532,0.961943828305,-0.138287073791,0.961943828305,-0.138287073791,0.0372754827751,0.099868189532
4500000000.0,0.0379435312373,0.102054649037,0.961240671801,-0.141348474665,0.961240671801,-0.141348474665,0.0379435312373,0.102054649037
4600000000.0,0.0386252099444,0.10423573077,0.960523106734,-0.144404604784,0.960523106734,-0.144404604784,0.0386252099444,0.10423573077
4700000000.0,0.039320472609,0.106411329952,0.959791178945,-0.147455360946,0.959791178945,-0.147455360946,0.039320472609,0.106411329952
4800000000.0,0.0400292714357,0.108581342457,0.959044935774,-0.150500640589,0.959044935774,-0.150500640589,0.0400292714357,0.108581342457
4900000000.0,0.0407515571698,0.110745664827,0.958284426014,-0.153540341805,0.958284426014,-0.153540341805,0.0407515571698,0.110745664827
5000000000.0,0.0414872791426,0.112904194287,0.957509699867,-0.156574363355,0.957509699867,-0.156574363355,0.0414872791426,0.112904194287
5100000000.0,0.042236385313,0.11505682876,0.956720808899,-0.159602604686,0.956720808899,-0.159602604686,0.042236385313,0.11505682876
5200000000.0,0.0429988223076,0.11720346688,0.955917806,-0.162624965943,0.955917806,-0.162624965943,0.0429988223076,0.11720346688
5300000000.0,0.0437745354576,0.119344008005,0.955100745352,-0.165641347982,0.955100745352,-0.165641347982,0.0437745354576,0.119344008005
5400000000.0,0.0445634688341,0.121478352233,0.954269682388,-0.168651652389,0.954269682388,-0.168651652389,0.0445634688341,0.121478352233
5500000000.0,0.0453655652812,0.123606400412,0.953424673762,-0.171655781486,0.953424673762,-0.171655781486,0.0453655652812,0.123606400412
5600000000.0,0.0461807664477,0.125728054153,0.952565777316,-0.174653638348,0.952565777316,-0.174653638348,0.0461807664477,0.125728054153
5700000000.0,0.0470090128172,0.127843215843,0.951693052052,-0.177645126814,0.951693052052,-0.177645126814,0.0470090128172,0.127843215843
5800000000.0,0.0478502437367,0.129951788655,0.9508065581,-0.180630151498,0.9508065581,-0.180630151498,0.0478502437367,0.129951788655
5900000000.0,0.0487043974446,0.132053676563,0.949906356695,-0.183608617805,0.949906356695,-0.183608617805,0.0487043974446,0.132053676563
6000000000.0,0.0495714110967,0.134148784347,0.948992510143,-0.186580431935,0.948992510143,-0.186580431935,0.0495714110967,0.134148784347
6100000000.0,0.0504512207923,0.136237017612,0.948065081806,-0.189545500899,0.948065081806,-0.189545500899,0.0504512207923,0.136237017612
6200000000.0,0.0513437615982,0.138318282789,0.947124136068,-0.192503732531,0.947124136068,-0.192503732531,0.0513437615982,0.138318282789
6300000000.0,0.052248967573,0.140392487152,0.946169738315,-0.195455035491,0.946169738315,-0.195455035491,0.052248967573,0.140392487152
6400000000.0,0.0531667717904,0.142459538826,0.945201954914,-0.198399319285,0.945201954914,-0.198399319285,0.0531667717904,0.142459538826
6500000000.0,0.054097106361,0.144519346796,0.944220853185,-0.201336494265,0.944220853185,-0.201336494265,0.054097106361,0.144519346796
6600000000.0,0.0550399024551,0.146571820914,0.943226501385,-0.204266471645,0.943226501385,-0.204266471645,0.0550399024551,0.146571820914
6700000000.0,0.0559950903232,0.148616871913,0.942218968683,-0.207189163507,0.942218968683,-0.207189163507,0.0559950903232,0.148616871913
6800000000.0,0.0569625993175,0.150654411413,0.94119832514,-0.210104482811,0.94119832514,-0.210104482811,0.0569625993175,0.150654411413
6900000000.0,0.0579423579122,0.152684351925,0.940164641689,-0.213012343404,0.940164641689,-0.213012343404,0.0579423579122,0.152684351925
7000000000.0,0.0589342937234,0.154706606869,0.939117990114,-0.215912660026,0.939117990114,-0.215912660026,0.0589342937234,0.154706606869
7100000000.0,0.0599383335286,0.156721090572,0.938058443033,-0.218805348319,0.938058443033,-0.218805348319,0.0599383335286,0.156721090572
7200000000.0,0.0609544032863,0.158727718282,0.936986073875,-0.221690324836,0.936986073875,-0.221690324836,0.0609544032863,0.158727718282
7300000000.0,0.0619824281551,0.16072640617,0.935900956864,-0.224567507048,0.935900956864,-0.224567507048,0.0619824281551,0.16072640617
7400000000.0,0.0630223325119,0.162717071343,0.934803166997,-0.227436813348,0.934803166997,-0.227436813348,0.0630223325119,0.162717071343
7500000000.0,0.0640740399708,0.164699631845,0.933692780031,-0.230298163064,0.933692780031,-0.230298163064,0.0640740399708,0.164699631845
7600000000.0,0.0651374734009,0.166674006668,0.932569872459,-0.233151476459,0.932569872459,-0.233151476459,0.0651374734009,0.166674006668
7700000000.0,0.0662125549446,0.168640115755,0.931434521497,-0.23599667474,0.931434521497,-0.23599667474,0.0662125549446,0.168640115755
7800000000.0,0.0672992060351,0.170597880009,0.930286805062,-0.238833680068,0.930286805062,-0.238833680068,0.0672992060351,0.170597880009
7900000000.0,0.068397347414,0.172547221294,0.929126801756,-0.241662415557,0.929126801756,-0.241662415557,0.068397347414,0.172547221294
8000000000.0,0.0695068991487,0.174488062445,0.927954590853,-0.244482805283,0.927954590853,-0.244482805283,0.0695068991487,0.174488062445
8100000000.0,0.0706277806494,0.176420327273,0.926770252272,-0.247294774291,0.926770252272,-0.247294774291,0.0706277806494,0.176420327273
8200000000.0,0.0717599106862,0.178343940567,0.925573866572,-0.250098248596,0.925573866572,-0.250098248596,0.0717599106862,0.178343940567
8300000000.0,0.0729032074061,0.180258828099,0.924365514925,-0.252893155192,0.924365514925,-0.252893155192,0.0729032074061,0.180258828099
8400000000.0,0.0740575883494,0.182164916633,0.923145279106,-0.255679422053,0.923145279106,-0.255679422053,0.0740575883494,0.182164916633
8500000000.0,0.0752229704663,0.184062133923,0.921913241472,-0.258456978139,0.921913241472,-0.258456978139,0.0752229704663,0.184062133923
8600000000.0,0.0763992701337,0.185950408722,0.920669484948,-0.261225753401,0.920669484948,-0.261225753401,0.0763992701337,0.185950408722
8700000000.0,0.077586403171,0.187829670782,0.919414093012,-0.263985678783,0.919414093012,-0.263985678783,0.077586403171,0.187829670782
8800000000.0,0.0787842848562,0.189699850861,0.918147149676,-0.266736686228,0.918147149676,-0.266736686228,0.0787842848562,0.189699850861
8900000000.0,0.0799928299426,0.191560880723,0.91686873947,-0.269478708677,0.91686873947,-0.269478708677,0.0799928299426,0.191560880723
9000000000.0,0.0812119526739,0.193412693143,0.91557894743,-0.272211680078,0.91557894743,-0.272211680078,0.0812119526739,0.193412693143
9100000000.0,0.0824415668007,0.195255221911,0.914277859075,-0.274935535383,0.914277859075,-0.274935535383,0.0824415668007,0.195255221911
9200000000.0,0.0836815855956,0.197088401829,0.912965560401,-0.277650210556,0.912965560401,-0.277650210556,0.0836815855956,0.197088401829
9300000000.0,0.0849319218693,0.198912168722,0.911642137857,-0.280355642572,0.911642137857,-0.280355642572,0.0849319218693,0.198912168722
9400000000.0,0.0861924879857,0.200726459433,0.910307678334,-0.28305176942,0.910307678334,-0.28305176942,0.0861924879857,0.200726459433
9500000000.0,0.0874631958775,0.202531211828,0.908962269147,-0.285738530105,0.908962269147,-0.285738530105,0.0874631958775,0.202531211828
9600000000.0,0.0887439570611,0.204326364795,0.907605998022,-0.288415864651,0.907605998022,-0.288415864651,0.0887439570611,0.204326364795
9700000000.0,0.0900346826523,0.206111858251,0.90623895308,-0.291083714101,0.90623895308,-0.291083714101,0.0900346826523,0.206111858251
9800000000.0,0.0913352833809,0.207887633139,0.904861222822,-0.293742020519,0.904861222822,-0.293742020519,0.0913352833809,0.207887633139
9900000000.0,0.0926456696061,0.209653631427,0.903472896113,-0.29639072699,0.903472896113,-0.29639072699,0.0926456696061,0.209653631427
10000000000.0,0.0939657513308,0.211409796116,0.902074062171,-0.299029777624,0.902074062171,-0.299029777624,0.0939657513308,0.211409796116
