freq (GHz),S11_real,S11_imag,S21_real,S21_imag,S12_real,S12_imag,S22_real,S22_imag
100000000.0,-6.82217808932e-05,-0.00787060001314,0.999927410757,-0.00788459528397,0.999927410757,-0.00788459528397,-6.82217808932e-05,-0.00787060001314
200000000.0,-0.000262164597769,-0.0157374815885,0.999733437795,-0.0157654746028,0.999733437795,-0.0157654746028,-0.000262164597769,-0.0157374815885
300000000.0,-0.000579977779416,-0.0235974459601,0.999415601781,-0.023639440443,0.999415601781,-0.023639440443,-0.000579977779416,-0.0235974459601
400000000.0,-0.00102136909906,-0.0314473716782,0.998974191191,-0.0315033722995,0.998974191191,-0.0315033722995,-0.00102136909906,-0.0314473716782
500000000.0,-0.00158594620867,-0.0392841872673,0.998409596934,-0.0393541994783,0.998409596934,-0.0393541994783,-0.00158594620867,-0.0392841872673
600000000.0,-0.00227321838743,-0.0471048641418,0.997722309003,-0.0471888940632,0.997722309003,-0.0471888940632,-0.00227321838743,-0.0471048641418
700000000.0,-0.00308259863259,-0.0549064147463,0.996912913971,-0.0550044690824,0.996912913971,-0.0550044690824,-0.00308259863259,-0.0549064147463
800000000.0,-0.00401340580086,-0.0626858928417,0.995982092707,-0.06279797881,0.995982092707,-0.06279797881,-0.00401340580086,-0.0626858928417
900000000.0,-0.00506486679618,-0.0704403947737,0.994930618117,-0.0705665200459,0.994930618117,-0.0705665200459,-0.00506486679618,-0.0704403947737
1000000000.0,-0.00623611881771,-0.0781670612838,0.993759352864,-0.0783072339335,0.993759352864,-0.0783072339335,-0.00623611881771,-0.0781670612838
1100000000.0,-0.00752621167685,-0.0858630795629,0.992469247036,-0.0860173080207,0.992469247036,-0.0860173080207,-0.00752621167685,-0.0858630795629
1200000000.0,-0.00893411019399,-0.093525685458,0.991061335734,-0.0936939784698,0.991061335734,-0.0936939784698,-0.00893411019399,-0.093525685458
1300000000.0,-0.0104586966737,-0.101152165712,0.989536736591,-0.101334532302,0.989536736591,-0.101334532302,-0.0104586966737,-0.101152165712
1400000000.0,-0.0120987734601,-0.108739860204,0.987896647214,-0.108936309641,0.987896647214,-0.108936309641,-0.0120987734601,-0.108739860204
1500000000.0,-0.0138530655674,-0.116286164141,0.986142342549,-0.116496705906,0.986142342549,-0.116496705906,-0.0138530655674,-0.116286164141
1600000000.0,-0.0157202233838,-0.123788530175,0.984275172174,-0.124013173935,0.984275172174,-0.124013173935,-0.0157202233838,-0.123788530175
1700000000.0,-0.017698825445,-0.131244470451,0.982296557526,-0.131483226031,0.982296557526,-0.131483226031,-0.017698825445,-0.131244470451
1800000000.0,-0.0197873812675,-0.138651558533,0.980207989064,-0.138904435892,0.980207989064,-0.138904435892,-0.0197873812675,-0.138651558533
1900000000.0,-0.0219843342399,-0.146007431236,0.978011023381,-0.146274440442,0.978011023381,-0.146274440442,-0.0219843342399,-0.146007431236
2000000000.0,-0.0242880645643,-0.153309790327,0.975707280256,-0.153590941539,0.975707280256,-0.153590941539,-0.0242880645643,-0.153309790327
2100000000.0,-0.0266968922409,-0.160556404115,0.973298439674,-0.160851707564,0.973298439674,-0.160851707564,-0.0266968922409,-0.160556404115
2200000000.0,-0.029209080088,-0.167745108901,0.970786238804,-0.16805457487,0.970786238804,-0.16805457487,-0.029209080088,-0.167745108901
2300000000.0,-0.0318228367968,-0.174873810317,0.968172468944,-0.175197449123,0.968172468944,-0.175197449123,-0.0318228367968,-0.174873810317
2400000000.0,-0.0345363200023,-0.181940484505,0.965458972448,-0.182278306487,0.965458972448,-0.182278306487,-0.0345363200023,-0.181940484505
2500000000.0,-0.0373476393744,-0.188943179184,0.962647639638,-0.189295194686,0.962647639638,-0.189295194686,-0.0373476393744,-0.188943179184
2600000000.0,-0.0402548597196,-0.19588001458,0.959740405698,-0.19624623394,0.959740405698,-0.19624623394,-0.0402548597196,-0.19588001458
2700000000.0,-0.0432560040826,-0.202749184215,0.956739247578,-0.203129617749,0.956739247578,-0.203129617749,-0.0432560040826,-0.202749184215
2800000000.0,-0.0463490568442,-0.209548955565,0.95364618089,-0.20994361356,0.95364618089,-0.20994361356,-0.0463490568442,-0.209548955565
2900000000.0,-0.0495319668129,-0.216277670597,0.950463256819,-0.216686563298,0.950463256819,-0.216686563298,-0.0495319668129,-0.216277670597
3000000000.0,-0.0528026502934,-0.222933746157,0.947192559056,-0.223356883758,0.947192559056,-0.223356883758,-0.0528026502934,-0.222933746157
3100000000.0,-0.0561589941391,-0.229515674248,0.943836200743,-0.229953066883,0.943836200743,-0.229953066883,-0.0561589941391,-0.229515674248
3200000000.0,-0.0595988587732,-0.236022022175,0.940396321452,-0.236473679912,0.940396321452,-0.236473679912,-0.0595988587732,-0.236022022175
3300000000.0,-0.0631200811737,-0.242451432566,0.936875084201,-0.242917365394,0.936875084201,-0.242917365394,-0.0631200811737,-0.242451432566
3400000000.0,-0.066720477824,-0.248802623271,0.933274672503,-0.249282841101,0.933274672503,-0.249282841101,-0.066720477824,-0.248802623271
3500000000.0,-0.070397847615,-0.255074387158,0.929597287465,-0.255568899811,0.929597287465,-0.255568899811,-0.070397847615,-0.255074387158
3600000000.0,-0.074149974701,-0.261265591781,0.925845144928,-0.261774408985,0.925845144928,-0.261774408985,-0.074149974701,-0.261265591781
3700000000.0,-0.0779746312967,-0.267375178945,0.922020472675,-0.26789831033,0.922020472675,-0.26789831033,-0.0779746312967,-0.267375178945
3800000000.0,-0.0818695804248,-0.273402164172,0.918125507682,-0.273939619265,0.918125507682,-0.273939619265,-0.0818695804248,-0.273402164172
3900000000.0,-0.0858325785913,-0.279345636057,0.91416249344,-0.279897424277,0.91416249344,-0.279897424277,-0.0858325785913,-0.279345636057
4000000000.0,-0.0898613784036,-0.285204755534,0.910133677338,-0.285770886192,0.910133677338,-0.285770886192,-0.0898613784036,-0.285204755534
4100000000.0,-0.0939537311141,-0.290978755049,0.906041308124,-0.291559237341,0.906041308124,-0.291559237341,-0.0939537311141,-0.290978755049
4200000000.0,-0.0981073890941,-0.296666937643,0.901887633423,-0.297261780649,0.901887633423,-0.297261780649,-0.0981073890941,-0.296666937643
4300000000.0,-0.102320108232,-0.302268675959,0.897674897346,-0.302877888642,0.897674897346,-0.302877888642,-0.102320108232,-0.302268675959
4400000000.0,-0.106589650253,-0.307783411164,0.893405338166,-0.308407002365,0.893405338166,-0.308407002365,-0.106589650253,-0.307783411164
4500000000.0,-0.110913784963,-0.313210651805,0.889081186075,-0.313848630243,0.889081186075,-0.313848630243,-0.110913784963,-0.313210651805
4600000000.0,-0.115290292404,-0.31854997259,0.884704661029,-0.319202346861,0.884704661029,-0.319202346861,-0.115290292404,-0.31854997259
4700000000.0,-0.119716964935,-0.323801013111,0.88027797067,-0.324467791686,0.88027797067,-0.324467791686,-0.119716964935,-0.323801013111
4800000000.0,-0.12419160922,-0.328963476507,0.875803308332,-0.329644667733,0.875803308332,-0.329644667733,-0.12419160922,-0.328963476507
4900000000.0,-0.128712048137,-0.334037128076,0.871282851135,-0.334732740173,0.871282851135,-0.334732740173,-0.128712048137,-0.334037128076
5000000000.0,-0.133276122596,-0.33902179383,0.866718758169,-0.339731834893,0.866718758169,-0.339731834893,-0.133276122596,-0.33902179383
5100000000.0,-0.137881693273,-0.343917359016,0.862113168755,-0.344641837011,0.862113168755,-0.344641837011,-0.137881693273,-0.343917359016
5200000000.0,-0.142526642259,-0.348723766593,0.857468200804,-0.349462689361,0.857468200804,-0.349462689361,-0.142526642259,-0.348723766593
5300000000.0,-0.147208874613,-0.353441015668,0.852785949255,-0.354194390924,0.852785949255,-0.354194390924,-0.147208874613,-0.353441015668
5400000000.0,-0.151926319839,-0.358069159916,0.848068484603,-0.358836995248,0.848068484603,-0.358836995248,-0.151926319839,-0.358069159916
5500000000.0,-0.15667693327,-0.362608305959,0.843317851513,-0.36339060883,0.843317851513,-0.36339060883,-0.15667693327,-0.362608305959
5600000000.0,-0.161458697368,-0.367058611731,0.838536067525,-0.36785538948,0.838536067525,-0.36785538948,-0.161458697368,-0.367058611731
5700000000.0,-0.166269622938,-0.371420284824,0.833725121832,-0.372231544666,0.833725121832,-0.372231544666,-0.166269622938,-0.371420284824
5800000000.0,-0.171107750257,-0.375693580819,0.828886974156,-0.376519329844,0.828886974156,-0.376519329844,-0.171107750257,-0.375693580819
5900000000.0,-0.175971150128,-0.379878801607,0.824023553694,-0.380719046786,0.824023553694,-0.380719046786,-0.175971150128,-0.379878801607
6000000000.0,-0.180857924837,-0.383976293706,0.81913675816,-0.384831041885,0.81913675816,-0.384831041885,-0.180857924837,-0.383976293706
6100000000.0,-0.185766209046,-0.38798644657,0.81422845289,-0.388855704477,0.81422845289,-0.388855704477,-0.185766209046,-0.38798644657
6200000000.0,-0.190694170599,-0.391909690904,0.809300470042,-0.392793465149,0.809300470042,-0.392793465149,-0.190694170599,-0.391909690904
6300000000.0,-0.19564001125,-0.39574649698,0.804354607859,-0.396644794056,0.804354607859,-0.396644794056,-0.19564001125,-0.39574649698
6400000000.0,-0.200601967323,-0.399497372962,0.799392630017,-0.400410199244,0.799392630017,-0.400410199244,-0.200601967323,-0.399497372962
6500000000.0,-0.205578310294,-0.403162863237,0.794416265041,-0.404090224986,0.794416265041,-0.404090224986,-0.205578310294,-0.403162863237
6600000000.0,-0.210567347302,-0.406743546762,0.789427205792,-0.407685450127,0.789427205792,-0.407685450127,-0.210567347302,-0.406743546762
6700000000.0,-0.215567421593,-0.410240035424,0.784427109023,-0.411196486441,0.784427109023,-0.411196486441,-0.215567421593,-0.410240035424
6800000000.0,-0.220576912897,-0.41365297242,0.779417595002,-0.414623977015,0.779417595002,-0.414623977015,-0.220576912897,-0.41365297242
6900000000.0,-0.225594237743,-0.416983030653,0.774400247202,-0.417968594643,0.774400247202,-0.417968594643,-0.225594237743,-0.416983030653
7000000000.0,-0.230617849705,-0.420230911153,0.769376612047,-0.42123104025,0.769376612047,-0.42123104025,-0.230617849705,-0.420230911153
7100000000.0,-0.235646239598,-0.423397341522,0.764348198724,-0.424412041331,0.764348198724,-0.424412041331,-0.235646239598,-0.423397341522
7200000000.0,-0.240677935608,-0.426483074402,0.759316479045,-0.427512350425,0.759316479045,-0.427512350425,-0.240677935608,-0.426483074402
7300000000.0,-0.24571150337,-0.429488885972,0.754282887375,-0.430532743608,0.754282887375,-0.430532743608,-0.24571150337,-0.429488885972
7400000000.0,-0.250745545999,-0.432415574472,0.7492488206,-0.433474019021,0.7492488206,-0.433474019021,-0.250745545999,-0.432415574472
7500000000.0,-0.255778704058,-0.435263958761,0.744215638155,-0.436336995423,0.744215638155,-0.436336995423,-0.255778704058,-0.435263958761
7600000000.0,-0.260809655493,-0.438034876902,0.739184662096,-0.439122510782,0.739184662096,-0.439122510782,-0.260809655493,-0.438034876902
7700000000.0,-0.265837115512,-0.440729184784,0.734157177213,-0.441831420889,0.734157177213,-0.441831420889,-0.265837115512,-0.440729184784
7800000000.0,-0.270859836422,-0.443347754767,0.7291344312,-0.444464598012,0.7291344312,-0.444464598012,-0.270859836422,-0.443347754767
7900000000.0,-0.275876607432,-0.445891474379,0.724117634847,-0.447022929586,0.724117634847,-0.447022929586,-0.275876607432,-0.445891474379
8000000000.0,-0.28088625441,-0.448361245025,0.719107962288,-0.449507316927,0.719107962288,-0.449507316927,-0.28088625441,-0.448361245025
8100000000.0,-0.285887639605,-0.450757980756,0.71410655127,-0.451918673995,0.71410655127,-0.451918673995,-0.285887639605,-0.450757980756
8200000000.0,-0.290879661342,-0.453082607052,0.709114503472,-0.454257926184,0.709114503472,-0.454257926184,-0.290879661342,-0.453082607052
8300000000.0,-0.295861253671,-0.455336059652,0.704132884841,-0.456526009149,0.704132884841,-0.456526009149,-0.295861253671,-0.455336059652
8400000000.0,-0.300831386004,-0.457519283424,0.699162725968,-0.458723867673,0.699162725968,-0.458723867673,-0.300831386004,-0.457519283424
8500000000.0,-0.305789062707,-0.459633231259,0.694205022484,-0.460852454565,0.694205022484,-0.460852454565,-0.305789062707,-0.459633231259
8600000000.0,-0.310733322679,-0.461678863017,0.689260735491,-0.462912729603,0.689260735491,-0.462912729603,-0.310733322679,-0.461678863017
8700000000.0,-0.315663238903,-0.463657144493,0.684330792006,-0.464905658505,0.684330792006,-0.464905658505,-0.315663238903,-0.463657144493
8800000000.0,-0.320577917972,-0.465569046434,0.679416085436,-0.46683221194,0.679416085436,-0.46683221194,-0.320577917972,-0.465569046434
8900000000.0,-0.3254764996,-0.467415543587,0.674517476068,-0.468693364578,0.674517476068,-0.468693364578,-0.3254764996,-0.467415543587
9000000000.0,-0.330358156112,-0.469197613776,0.669635791574,-0.47049009417,0.669635791574,-0.47049009417,-0.330358156112,-0.469197613776
9100000000.0,-0.335222091921,-0.47091623703,0.664771827545,-0.47222338067,0.664771827545,-0.47222338067,-0.335222091921,-0.47091623703
9200000000.0,-0.340067542983,-0.472572394731,0.659926348022,-0.473894205391,0.659926348022,-0.473894205391,-0.340067542983,-0.472572394731
9300000000.0,-0.344893776248,-0.474167068808,0.655100086056,-0.475503550191,0.655100086056,-0.475503550191,-0.344893776248,-0.474167068808
9400000000.0,-0.349700089094,-0.475701240958,0.65029374427,-0.477052396698,0.65029374427,-0.477052396698,-0.349700089094,-0.475701240958
9500000000.0,-0.354485808751,-0.477175891908,0.645507995432,-0.478541725573,0.645507995432,-0.478541725573,-0.354485808751,-0.477175891908
9600000000.0,-0.359250291717,-0.478592000705,0.640743483045,-0.479972515796,0.640743483045,-0.479972515796,-0.359250291717,-0.478592000705
9700000000.0,-0.36399292317,-0.47995054404,0.636000821932,-0.481345743993,0.636000821932,-0.481345743993,-0.36399292317,-0.47995054404
9800000000.0,-0.368713116368,-0.481252495605,0.631280598833,-0.482662383796,0.631280598833,-0.482662383796,-0.368713116368,-0.481252495605
9900000000.0,-0.373410312048,-0.482498825487,0.626583373013,-0.483923405227,0.626583373013,-0.483923405227,-0.373410312048,-0.482498825487
10000000000.0,-0.378083977822,-0.483690499577,0.621909676859,-0.48512977412,0.621909676859,-0.48512977412,-0.378083977822,-0.483690499577
