freq (GHz),S11_real,S11_imag,S21_real,S21_imag,S12_real,S12_imag,S22_real,S22_imag
100000000.0,6.62428860632e-05,-0.00528199809345,0.999858452846,-0.00597016147435,0.999858452846,-0.00597016147435,6.62428860634e-05,-0.00528199809345
200000000.0,-3.31522518822e-05,-0.0105630570532,0.999756938854,-0.011939418878,0.999756938854,-0.011939418878,-3.31522518822e-05,-0.0105630570532
300000000.0,-0.000195767844482,-0.0158422460002,0.999592090147,-0.0179068621088,0.999592090147,-0.0179068621088,-0.000195767844481,-0.0158422460002
400000000.0,-0.00042147069276,-0.0211186066945,0.999363860812,-0.0238715491087,0.999363860812,-0.0238715491087,-0.00042147069276,-0.0211186066945
500000000.0,-0.000710163096357,-0.0263911675603,0.999072279688,-0.0298325223027,0.999072279688,-0.0298325223027,-0.000710163096357,-0.0263911675603
600000000.0,-0.00106174411879,-0.0316589490312,0.998717412592,-0.0357888147223,0.998717412592,-0.0357888147223,-0.00106174411879,-0.0316589490312
700000000.0,-0.00147609956742,-0.0369209665695,0.998299352919,-0.0417394534126,0.998299352919,-0.0417394534126,-0.00147609956742,-0.0369209665695
800000000.0,-0.00195309824529,-0.0421762327161,0.997818218323,-0.0476834617099,0.997818218323,-0.0476834617099,-0.00195309824529,-0.0421762327161
900000000.0,-0.00249259023897,-0.0474237586437,0.997274149281,-0.0536198609451,0.997274149281,-0.0536198609451,-0.00249259023897,-0.0474237586437
1000000000.0,-0.00309440603798,-0.0526625554266,0.996667308386,-0.0595476718178,0.996667308386,-0.0595476718178,-0.00309440603798,-0.0526625554266
1100000000.0,-0.00375835605364,-0.0578916351328,0.995997879944,-0.0654659155654,0.995997879944,-0.0654659155654,-0.00375835605364,-0.0578916351328
1200000000.0,-0.00448423035583,-0.0631100117973,0.995266069715,-0.0713736149954,0.995266069715,-0.0713736149954,-0.00448423035583,-0.0631100117973
1300000000.0,-0.00527179854215,-0.068316702312,0.994472104716,-0.077269795421,0.994472104716,-0.077269795421,-0.00527179854215,-0.068316702312
1400000000.0,-0.00612080969531,-0.0735107272536,0.993616233043,-0.0831534855267,0.993616233043,-0.0831534855267,-0.00612080969531,-0.0735107272536
1500000000.0,-0.00703099240448,-0.0786911116648,0.992698723707,-0.0890237181794,0.992698723707,-0.0890237181794,-0.00703099240448,-0.0786911116648
1600000000.0,-0.00800205483593,-0.0838568857964,0.991719866458,-0.0948795311966,0.991719866458,-0.0948795311966,-0.00800205483593,-0.0838568857964
1700000000.0,-0.00903368484408,-0.0890070858189,0.990679971604,-0.10071996808,0.990679971604,-0.10071996808,-0.00903368484408,-0.0890070858189
1800000000.0,-0.0101255501169,-0.094140754507,0.989579369809,-0.106544078717,0.989579369809,-0.106544078717,-0.0101255501169,-0.094140754507
1900000000.0,-0.0112772983518,-0.0992569418999,0.988418411874,-0.112350920059,0.988418411874,-0.112350920059,-0.0112772983518,-0.0992569418999
2000000000.0,-0.0124885574584,-0.10435470594,0.987197468509,-0.118139556773,0.987197468509,-0.118139556773,-0.0124885574584,-0.10435470594
2100000000.0,-0.0137589357874,-0.109433113094,0.985916930078,-0.123909061876,0.985916930078,-0.123909061876,-0.0137589357874,-0.109433113094
2200000000.0,-0.0150880223812,-0.114491238948,0.984577206328,-0.129658517341,0.984577206328,-0.129658517341,-0.0150880223812,-0.114491238948
2300000000.0,-0.0164753872479,-0.119528168795,0.983178726102,-0.135387014693,0.983178726102,-0.135387014693,-0.0164753872479,-0.119528168795
2400000000.0,-0.017920581655,-0.124542998194,0.981721937034,-0.141093655581,0.981721937034,-0.141093655581,-0.017920581655,-0.124542998194
2500000000.0,-0.019423138443,-0.12953483352,0.980207305225,-0.14677755233,0.980207305225,-0.14677755233,-0.019423138443,-0.12953483352
2600000000.0,-0.0209825723569,-0.134502792492,0.978635314904,-0.152437828483,0.978635314904,-0.152437828483,-0.0209825723569,-0.134502792492
2700000000.0,-0.0225983803957,-0.139446004684,0.977006468071,-0.158073619313,0.977006468071,-0.158073619313,-0.0225983803957,-0.139446004684
2800000000.0,-0.0242700421787,-0.144363612018,0.975321284129,-0.163684072327,0.975321284129,-0.163684072327,-0.0242700421787,-0.144363612018
2900000000.0,-0.0259970203267,-0.149254769244,0.973580299495,-0.169268347751,0.973580299495,-0.169268347751,-0.0259970203267,-0.149254769244
3000000000.0,-0.0277787608588,-0.154118644399,0.9717840672,-0.174825618989,0.9717840672,-0.174825618989,-0.0277787608588,-0.154118644399
3100000000.0,-0.0296146936032,-0.158954419246,0.969933156476,-0.180355073074,0.969933156476,-0.180355073074,-0.0296146936032,-0.158954419246
3200000000.0,-0.031504232621,-0.163761289699,0.968028152332,-0.185855911095,0.968028152332,-0.185855911095,-0.031504232621,-0.163761289699
3300000000.0,-0.0334467766427,-0.168538466231,0.966069655108,-0.191327348608,0.966069655108,-0.191327348608,-0.0334467766427,-0.168538466231
3400000000.0,-0.0354417095157,-0.173285174257,0.964058280035,-0.196768616023,0.964058280035,-0.196768616023,-0.0354417095157,-0.173285174257
3500000000.0,-0.0374884006639,-0.178000654507,0.961994656767,-0.202178958985,0.961994656767,-0.202178958985,-0.0374884006639,-0.178000654507
3600000000.0,-0.0395862055563,-0.182684163375,0.959879428914,-0.207557638719,0.959879428914,-0.207557638719,-0.0395862055563,-0.182684163375
3700000000.0,-0.0417344661847,-0.187334973248,0.957713253561,-0.212903932372,0.957713253561,-0.212903932372,-0.0417344661847,-0.187334973248
3800000000.0,-0.043932511551,-0.191952372826,0.955496800782,-0.218217133328,0.955496800782,-0.218217133328,-0.043932511551,-0.191952372826
3900000000.0,-0.0461796581612,-0.196535667411,0.953230753144,-0.223496551502,0.953230753144,-0.223496551502,-0.0461796581612,-0.196535667411
4000000000.0,-0.0484752105265,-0.201084179183,0.950915805206,-0.228741513623,0.950915805206,-0.228741513623,-0.0484752105265,-0.201084179183
4100000000.0,-0.0508184616707,-0.205597247457,0.94855266301,-0.23395136349,0.94855266301,-0.23395136349,-0.0508184616707,-0.205597247457
4200000000.0,-0.0532086936429,-0.210074228925,0.946142043566,-0.239125462213,0.946142043566,-0.239125462213,-0.0532086936429,-0.210074228925
4300000000.0,-0.0556451780346,-0.214514497866,0.943684674338,-0.244263188436,0.943684674338,-0.244263188436,-0.0556451780346,-0.214514497866
4400000000.0,-0.058127176501,-0.218917446354,0.941181292721,-0.249363938537,0.941181292721,-0.249363938537,-0.058127176501,-0.218917446354
4500000000.0,-0.0606539412851,-0.223282484434,0.938632645515,-0.254427126811,0.938632645515,-0.254427126811,-0.0606539412851,-0.223282484434
4600000000.0,-0.0632247157439,-0.227609040286,0.936039488399,-0.259452185637,0.936039488399,-0.259452185637,-0.0632247157439,-0.227609040286
4700000000.0,-0.065838734877,-0.231896560368,0.933402585405,-0.26443856562,0.933402585405,-0.26443856562,-0.065838734877,-0.231896560368
4800000000.0,-0.0684952258552,-0.236144509544,0.930722708383,-0.269385735721,0.930722708383,-0.269385735721,-0.0684952258552,-0.236144509544
4900000000.0,-0.0711934085503,-0.240352371186,0.928000636477,-0.274293183365,0.928000636477,-0.274293183365,-0.0711934085503,-0.240352371186
5000000000.0,-0.0739324960633,-0.244519647265,0.925237155596,-0.27916041453,0.925237155596,-0.27916041453,-0.0739324960633,-0.244519647265
5100000000.0,-0.0767116952523,-0.248645858424,0.922433057879,-0.283986953822,0.922433057879,-0.283986953822,-0.0767116952523,-0.248645858424
5200000000.0,-0.0795302072585,-0.252730544027,0.919589141178,-0.288772344529,0.919589141178,-0.288772344529,-0.0795302072585,-0.252730544027
5300000000.0,-0.0823872280292,-0.256773262198,0.916706208531,-0.293516148655,0.916706208531,-0.293516148655,-0.0823872280292,-0.256773262198
5400000000.0,-0.0852819488386,-0.260773589838,0.913785067637,-0.298217946946,0.913785067637,-0.298217946946,-0.0852819488386,-0.260773589838
5500000000.0,-0.0882135568042,-0.264731122625,0.910826530348,-0.302877338886,0.910826530348,-0.302877338886,-0.0882135568042,-0.264731122625
5600000000.0,-0.0911812353995,-0.268645475003,0.907831412148,-0.307493942692,0.907831412148,-0.307493942692,-0.0911812353995,-0.268645475003
5700000000.0,-0.0941841649613,-0.27251628015,0.904800531651,-0.312067395277,0.904800531651,-0.312067395277,-0.0941841649613,-0.27251628015
5800000000.0,-0.0972215231928,-0.276343189928,0.901734710096,-0.316597352207,0.901734710096,-0.316597352207,-0.0972215231928,-0.276343189928
5900000000.0,-0.100292485659,-0.280125874824,0.898634770848,-0.321083487644,0.898634770848,-0.321083487644,-0.100292485659,-0.280125874824
6000000000.0,-0.103396226279,-0.283864023872,0.895501538915,-0.325525494262,0.895501538915,-0.325525494262,-0.103396226279,-0.283864023872
6100000000.0,-0.106531917805,-0.287557344561,0.892335840458,-0.329923083164,0.892335840458,-0.329923083164,-0.106531917805,-0.287557344561
6200000000.0,-0.109698732304,-0.291205562729,0.889138502315,-0.334275983771,0.889138502315,-0.334275983771,-0.109698732304,-0.291205562729
6300000000.0,-0.112895841624,-0.294808422442,0.885910351536,-0.338583943708,0.885910351536,-0.338583943708,-0.112895841624,-0.294808422442
6400000000.0,-0.11612241785,-0.298365685861,0.882652214923,-0.342846728668,0.882652214923,-0.342846728668,-0.11612241785,-0.298365685861
6500000000.0,-0.119377633764,-0.301877133098,0.879364918573,-0.347064122269,0.879364918573,-0.347064122269,-0.119377633764,-0.301877133098
6600000000.0,-0.122660663282,-0.305342562054,0.87604928744,-0.351235925895,0.87604928744,-0.351235925895,-0.122660663282,-0.305342562054
6700000000.0,-0.125970681888,-0.308761788251,0.872706144897,-0.355361958529,0.872706144897,-0.355361958529,-0.125970681888,-0.308761788251
6800000000.0,-0.129306867061,-0.312134644649,0.869336312316,-0.359442056568,0.869336312316,-0.359442056568,-0.129306867061,-0.312134644649
6900000000.0,-0.13266839869,-0.315460981451,0.865940608651,-0.363476073631,0.865940608651,-0.363476073631,-0.13266839869,-0.315460981451
7000000000.0,-0.136054459475,-0.318740665904,0.862519850033,-0.367463880362,0.862519850033,-0.367463880362,-0.136054459475,-0.318740665904
7100000000.0,-0.139464235323,-0.32197358208,0.859074849376,-0.37140536421,0.859074849376,-0.37140536421,-0.139464235323,-0.32197358208
7200000000.0,-0.142896915733,-0.325159630655,0.855606415994,-0.375300429208,0.855606415994,-0.375300429208,-0.142896915733,-0.325159630655
7300000000.0,-0.146351694169,-0.328298728678,0.852115355226,-0.379148995747,0.852115355226,-0.379148995747,-0.146351694169,-0.328298728678
7400000000.0,-0.149827768418,-0.331390809329,0.848602468078,-0.382951000329,0.848602468078,-0.382951000329,-0.149827768418,-0.331390809329
7500000000.0,-0.153324340947,-0.334435821667,0.845068550867,-0.38670639532,0.845068550867,-0.38670639532,-0.153324340947,-0.334435821667
7600000000.0,-0.156840619241,-0.33743373038,0.841514394882,-0.390415148697,0.841514394882,-0.390415148697,-0.156840619241,-0.33743373038
7700000000.0,-0.160375816128,-0.340384515514,0.837940786058,-0.394077243785,0.837940786058,-0.394077243785,-0.160375816128,-0.340384515514
7800000000.0,-0.163929150103,-0.343288172207,0.834348504657,-0.397692678981,0.834348504657,-0.397692678981,-0.163929150103,-0.343288172207
7900000000.0,-0.167499845629,-0.346144710411,0.830738324958,-0.401261467487,0.830738324958,-0.401261467487,-0.167499845629,-0.346144710411
8000000000.0,-0.171087133433,-0.348954154612,0.827111014971,-0.404783637021,0.827111014971,-0.404783637021,-0.171087133433,-0.348954154612
8100000000.0,-0.174690250788,-0.351716543537,0.823467336146,-0.408259229534,0.823467336146,-0.408259229534,-0.174690250788,-0.351716543537
8200000000.0,-0.178308441788,-0.354431929868,0.819808043104,-0.411688300919,0.819808043104,-0.411688300919,-0.178308441788,-0.354431929868
8300000000.0,-0.181940957604,-0.357100379942,0.81613388338,-0.415070920711,0.81613388338,-0.415070920711,-0.181940957604,-0.357100379942
8400000000.0,-0.185587056734,-0.359721973452,0.812445597172,-0.41840717179,0.812445597172,-0.41840717179,-0.185587056734,-0.359721973452
8500000000.0,-0.189246005238,-0.36229680314,0.808743917102,-0.421697150078,0.808743917102,-0.421697150078,-0.189246005238,-0.36229680314
8600000000.0,-0.19291707697,-0.364824974496,0.805029567993,-0.424940964232,0.805029567993,-0.424940964232,-0.19291707697,-0.364824974496
8700000000.0,-0.196599553782,-0.367306605444,0.801303266656,-0.428138735335,0.801303266656,-0.428138735335,-0.196599553782,-0.367306605444
8800000000.0,-0.200292725737,-0.36974182603,0.797565721685,-0.431290596584,0.797565721685,-0.431290596584,-0.200292725737,-0.36974182603
8900000000.0,-0.203995891295,-0.372130778112,0.793817633262,-0.434396692979,0.793817633262,-0.434396692979,-0.203995891295,-0.372130778112
9000000000.0,-0.207708357494,-0.374473615044,0.790059692985,-0.437457181007,0.790059692985,-0.437457181007,-0.207708357494,-0.374473615044
9100000000.0,-0.211429440122,-0.376770501357,0.786292583689,-0.440472228327,0.786292583689,-0.440472228327,-0.211429440122,-0.376770501357
9200000000.0,-0.215158463875,-0.379021612448,0.782516979291,-0.443442013456,0.782516979291,-0.443442013456,-0.215158463875,-0.379021612448
9300000000.0,-0.218894762505,-0.381227134261,0.778733544642,-0.446366725449,0.778733544642,-0.446366725449,-0.218894762505,-0.381227134261
9400000000.0,-0.222637678959,-0.383387262967,0.77494293539,-0.449246563587,0.77494293539,-0.449246563587,-0.222637678959,-0.383387262967
9500000000.0,-0.226386565504,-0.385502204654,0.771145797847,-0.452081737059,0.771145797847,-0.452081737059,-0.226386565504,-0.385502204654
9600000000.0,-0.230140783847,-0.387572175006,0.76734276888,-0.454872464644,0.76734276888,-0.454872464644,-0.230140783847,-0.387572175006
9700000000.0,-0.233899705243,-0.389597398992,0.763534475796,-0.457618974403,0.763534475796,-0.457618974403,-0.233899705243,-0.389597398992
9800000000.0,-0.237662710588,-0.391578110552,0.759721536248,-0.460321503363,0.759721536248,-0.460321503363,-0.237662710588,-0.391578110552
9900000000.0,-0.241429190511,-0.393514552284,0.755904558147,-0.462980297204,0.755904558147,-0.462980297204,-0.241429190511,-0.393514552284
10000000000.0,-0.245198545454,-0.395406975136,0.752084139583,-0.465595609952,0.752084139583,-0.465595609952,-0.245198545454,-0.395406975136
