freq (GHz),S11_real,S11_imag,S21_real,S21_imag,S12_real,S12_imag,S22_real,S22_imag
100000000.0,0.000545942198847,0.000204475755298,0.999451004708,-0.00149563114732,0.999451004708,-0.00149563114732,0.000545942198847,0.000204475755298
200000000.0,0.000549914809198,0.000408930774437,0.999443311447,-0.00299128165178,0.999443311447,-0.00299128165178,0.000549914809198,0.000408930774437
300000000.0,0.00055353925074,0.000613364274654,0.999434298513,-0.00448697170724,0.999434298513,-0.00448697170724,0.00055353925074,0.000613364274654
400000000.0,0.000557289138009,0.000817773367156,0.999423491924,-0.00598271389682,0.999423491924,-0.00598271389682,0.000557289138009,0.000817773367156
500000000.0,0.000561346629027,0.00102215503692,0.999410709091,-0.0074785178479,0.999410709091,-0.0074785178479,0.000561346629027,0.00102215503692
600000000.0,0.000565804486735,0.00122650637754,0.999395856761,-0.00897439141518,0.999395856761,-0.00897439141518,0.000565804486735,0.00122650637754
700000000.0,0.000570717416411,0.00143082464449,0.999378879691,-0.0104703412213,0.999378879691,-0.0104703412213,0.000570717416411,0.00143082464449
800000000.0,0.000576120792566,0.00163510726452,0.999359741924,-0.011966372961,0.999359741924,-0.011966372961,0.000576120792567,0.00163510726452
900000000.0,0.000582038993029,0.00183935183191,0.999338418458,-0.0134624915932,0.999338418458,-0.0134624915932,0.000582038993029,0.00183935183191
1000000000.0,0.000588489621403,0.00204355610055,0.999314891033,-0.0149587014723,0.999314891033,-0.0149587014723,0.000588489621403,0.00204355610055
1100000000.0,0.00059548585333,0.0022477179751,0.999289145782,-0.0164550064431,0.999289145782,-0.0164550064431,0.00059548585333,0.0022477179751
1200000000.0,0.000603037834005,0.00245183550227,0.999261171841,-0.0179514099119,0.999261171841,-0.0179514099119,0.000603037834005,0.00245183550227
1300000000.0,0.000611153557184,0.00265590686238,0.999230960469,-0.0194479149017,0.999230960469,-0.0194479149017,0.000611153557184,0.00265590686238
1400000000.0,0.000619839442797,0.00285993036192,0.999198504475,-0.0209445240969,0.999198504475,-0.0209445240969,0.000619839442797,0.00285993036192
1500000000.0,0.000629100730489,0.00306390442652,0.999163797825,-0.0224412398784,0.999163797825,-0.0224412398784,0.000629100730489,0.00306390442652
1600000000.0,0.000638941755999,0.00326782759447,0.999126835369,-0.0239380643539,0.999126835369,-0.0239380643539,0.000638941755999,0.00326782759447
1700000000.0,0.000649366150341,0.00347169851096,0.999087612643,-0.0254349993829,0.999087612643,-0.0254349993829,0.000649366150341,0.00347169851096
1800000000.0,0.000660376986579,0.00367551592271,0.999046125722,-0.0269320465976,0.999046125722,-0.0269320465976,0.000660376986579,0.00367551592271
1900000000.0,0.000671976890128,0.00387927867302,0.999002371116,-0.0284292074216,0.999002371116,-0.0284292074216,0.000671976890128,0.00387927867302
2000000000.0,0.000684168123052,0.00408298569719,0.998956345682,-0.0299264830859,0.998956345682,-0.0299264830859,0.000684168123052,0.00408298569719
2100000000.0,0.000696952649502,0.00428663601833,0.998908046562,-0.0314238746424,0.998908046562,-0.0314238746424,0.000696952649502,0.00428663601833
2200000000.0,0.000710332187184,0.00449022874342,0.998857471133,-0.032921382977,0.998857471133,-0.032921382977,0.000710332187184,0.00449022874342
2300000000.0,0.000724308248368,0.00469376305969,0.998804616967,-0.0344190088199,0.998804616967,-0.0344190088199,0.000724308248368,0.00469376305969
2400000000.0,0.000738882172896,0.00489723823113,0.998749481798,-0.0359167527558,0.998749481798,-0.0359167527558,0.000738882172896,0.00489723823113
2500000000.0,0.000754055155048,0.00510065359543,0.998692063498,-0.0374146152328,0.998692063498,-0.0374146152328,0.000754055155048,0.00510065359543
2600000000.0,0.00076982826559,0.00530400856084,0.998632360055,-0.0389125965702,0.998632360055,-0.0389125965702,0.00076982826559,0.00530400856084
2700000000.0,0.000786202470039,0.00550730260347,0.998570369554,-0.0404106969659,0.998570369554,-0.0404106969659,0.000786202470039,0.00550730260347
2800000000.0,0.000803178643903,0.00571053526453,0.998506090166,-0.0419089165031,0.998506090166,-0.0419089165031,0.000803178643903,0.00571053526453
2900000000.0,0.000820757585487,0.00591370614788,0.998439520133,-0.043407255156,0.998439520133,-0.043407255156,0.000820757585487,0.00591370614788
3000000000.0,0.000838940026742,0.00611681491765,0.998370657761,-0.044905712796,0.998370657761,-0.044905712796,0.000838940026742,0.00611681491765
3100000000.0,0.000857726642497,0.00631986129594,0.998299501406,-0.0464042891964,0.998299501406,-0.0464042891964,0.000857726642497,0.00631986129594
3200000000.0,0.000877118058366,0.00652284506073,0.998226049474,-0.0479029840371,0.998226049474,-0.0479029840371,0.000877118058366,0.00652284506073
3300000000.0,0.000897114857566,0.00672576604382,0.99815030041,-0.0494017969094,0.99815030041,-0.0494017969094,0.000897114857566,0.00672576604382
3400000000.0,0.000917717586816,0.00692862412891,0.998072252694,-0.0509007273197,0.998072252694,-0.0509007273197,0.000917717586816,0.00692862412891
3500000000.0,0.000938926761466,0.0071314192497,0.997991904835,-0.0523997746933,0.997991904835,-0.0523997746933,0.000938926761466,0.0071314192497
3600000000.0,0.000960742869988,0.00733415138821,0.997909255372,-0.0538989383784,0.997909255372,-0.0538989383784,0.000960742869988,0.00733415138821
3700000000.0,0.000983166377915,0.00753682057302,0.997824302863,-0.055398217649,0.997824302863,-0.055398217649,0.000983166377915,0.00753682057302
3800000000.0,0.00100619773131,0.00773942687771,0.99773704589,-0.056897611708,0.99773704589,-0.056897611708,0.00100619773131,0.00773942687771
3900000000.0,0.00102983735983,0.00794197041926,0.99764748305,-0.0583971196903,0.99764748305,-0.0583971196903,0.00102983735983,0.00794197041926
4000000000.0,0.00105408567948,0.00814445135664,0.997555612957,-0.0598967406656,0.997555612957,-0.0598967406656,0.00105408567948,0.00814445135664
4100000000.0,0.00107894309502,0.00834686988932,0.997461434238,-0.0613964736407,0.997461434238,-0.0613964736407,0.00107894309502,0.00834686988932
4200000000.0,0.00110441000215,0.00854922625597,0.997364945532,-0.062896317562,0.997364945532,-0.062896317562,0.00110441000215,0.00854922625597
4300000000.0,0.00113048678945,0.00875152073311,0.997266145487,-0.0643962713181,0.997266145487,-0.0643962713181,0.00113048678945,0.00875152073311
4400000000.0,0.00115717384016,0.00895375363384,0.997165032761,-0.0658963337416,0.997165032761,-0.0658963337416,0.00115717384016,0.00895375363384
4500000000.0,0.00118447153374,0.00915592530668,0.99706160602,-0.0673965036112,0.99706160602,-0.0673965036112,0.00118447153374,0.00915592530668
4600000000.0,0.00121238024732,0.00935803613434,0.996955863936,-0.0688967796538,0.996955863936,-0.0688967796538,0.00121238024732,0.00935803613434
4700000000.0,0.00124090035701,0.00956008653265,0.996847805187,-0.0703971605462,0.996847805187,-0.0703971605462,0.00124090035701,0.00956008653265
4800000000.0,0.00127003223903,0.00976207694944,0.996737428455,-0.0718976449168,0.996737428455,-0.0718976449168,0.00127003223903,0.00976207694944
4900000000.0,0.00129977627087,0.00996400786351,0.996624732428,-0.0733982313474,0.996624732428,-0.0733982313474,0.00129977627087,0.00996400786351
5000000000.0,0.00133013283223,0.0101658797836,0.996509715795,-0.0748989183747,0.996509715795,-0.0748989183747,0.00133013283223,0.0101658797836
5100000000.0,0.00136110230591,0.0103676932474,0.996392377249,-0.0763997044918,0.996392377249,-0.0763997044918,0.00136110230591,0.0103676932474
5200000000.0,0.00139268507868,0.0105694488208,0.996272715487,-0.0779005881494,0.996272715487,-0.0779005881494,0.00139268507868,0.0105694488208
5300000000.0,0.00142488154203,0.0107711470966,0.996150729205,-0.0794015677575,0.996150729205,-0.0794015677575,0.00142488154203,0.0107711470966
5400000000.0,0.00145769209285,0.0109727886938,0.996026417102,-0.0809026416866,0.996026417102,-0.0809026416866,0.00145769209285,0.0109727886938
5500000000.0,0.00149111713413,0.0111743742571,0.995899777877,-0.0824038082687,0.995899777877,-0.0824038082687,0.00149111713413,0.0111743742571
5600000000.0,0.00152515707549,0.0113759044555,0.995770810233,-0.0839050657986,0.995770810233,-0.0839050657986,0.00152515707549,0.0113759044555
5700000000.0,0.00155981233382,0.0115773799818,0.995639512868,-0.0854064125352,0.995639512868,-0.0854064125352,0.00155981233382,0.0115773799818
5800000000.0,0.00159508333374,0.0117788015517,0.995505884485,-0.0869078467023,0.995505884485,-0.0869078467023,0.00159508333374,0.0117788015517
5900000000.0,0.0016309705081,0.0119801699034,0.995369923784,-0.0884093664896,0.995369923784,-0.0884093664896,0.0016309705081,0.0119801699034
6000000000.0,0.00166747429841,0.0121814857963,0.995231629466,-0.0899109700539,0.995231629466,-0.0899109700539,0.00166747429841,0.0121814857963
6100000000.0,0.00170459515531,0.0123827500107,0.995091000231,-0.0914126555199,0.995091000231,-0.0914126555199,0.00170459515531,0.0123827500107
6200000000.0,0.0017423335389,0.012583963347,0.994948034778,-0.0929144209811,0.994948034778,-0.0929144209811,0.0017423335389,0.012583963347
6300000000.0,0.00178068991914,0.012785126625,0.994802731806,-0.0944162645006,0.994802731806,-0.0944162645006,0.00178068991914,0.012785126625
6400000000.0,0.00181966477617,0.0129862406833,0.994655090012,-0.0959181841119,0.994655090012,-0.0959181841119,0.00181966477617,0.0129862406833
6500000000.0,0.00185925860067,0.0131873063786,0.994505108092,-0.0974201778198,0.994505108092,-0.0974201778198,0.00185925860067,0.0131873063786
6600000000.0,0.00189947189411,0.0133883245851,0.994352784741,-0.0989222436012,0.994352784741,-0.0989222436012,0.00189947189411,0.0133883245851
6700000000.0,0.00194030516906,0.013589296194,0.994198118652,-0.100424379405,0.994198118652,-0.100424379405,0.00194030516906,0.013589296194
6800000000.0,0.00198175894947,0.0137902221127,0.994041108518,-0.101926583155,0.994041108518,-0.101926583155,0.00198175894947,0.0137902221127
6900000000.0,0.00202383377089,0.0139911032646,0.99388175303,-0.103428852747,0.99388175303,-0.103428852747,0.00202383377089,0.0139911032646
7000000000.0,0.00206653018072,0.0141919405882,0.993720050875,-0.104931186053,0.993720050875,-0.104931186053,0.00206653018072,0.0141919405882
7100000000.0,0.00210984873843,0.0143927350364,0.993556000741,-0.106433580919,0.993556000741,-0.106433580919,0.00210984873842,0.0143927350364
7200000000.0,0.00215379001577,0.0145934875768,0.993389601314,-0.107936035168,0.993389601314,-0.107936035168,0.00215379001577,0.0145934875768
7300000000.0,0.00219835459698,0.0147941991902,0.993220851277,-0.109438546599,0.993220851277,-0.109438546599,0.00219835459698,0.0147941991902
7400000000.0,0.00224354307896,0.0149948708707,0.993049749311,-0.110941112987,0.993049749311,-0.110941112987,0.00224354307896,0.0149948708707
7500000000.0,0.00228935607146,0.0151955036249,0.992876294097,-0.112443732085,0.992876294097,-0.112443732085,0.00228935607146,0.0151955036249
7600000000.0,0.00233579419725,0.0153960984719,0.992700484311,-0.113946401625,0.992700484311,-0.113946401625,0.00233579419725,0.0153960984719
7700000000.0,0.00238285809224,0.0155966564421,0.99252231863,-0.115449119316,0.99252231863,-0.115449119316,0.00238285809224,0.0155966564421
7800000000.0,0.00243054840571,0.0157971785773,0.992341795728,-0.116951882845,0.992341795728,-0.116951882845,0.00243054840571,0.0157971785773
7900000000.0,0.00247886580036,0.0159976659303,0.992158914277,-0.11845468988,0.992158914277,-0.11845468988,0.00247886580036,0.0159976659303
8000000000.0,0.00252781095253,0.016198119564,0.991973672945,-0.119957538067,0.991973672945,-0.119957538067,0.00252781095253,0.016198119564
8100000000.0,0.00257738455225,0.0163985405512,0.991786070401,-0.121460425035,0.991786070401,-0.121460425035,0.00257738455225,0.0163985405512
8200000000.0,0.00262758730345,0.0165989299744,0.99159610531,-0.122963348388,0.99159610531,-0.122963348388,0.00262758730345,0.0165989299744
8300000000.0,0.00267841992398,0.0167992889252,0.991403776335,-0.124466305717,0.991403776335,-0.124466305717,0.00267841992398,0.0167992889252
8400000000.0,0.0027298831458,0.0169996185037,0.991209082139,-0.125969294588,0.991209082139,-0.125969294588,0.0027298831458,0.0169996185037
8500000000.0,0.00278197771502,0.0171999198184,0.99101202138,-0.127472312554,0.99101202138,-0.127472312554,0.00278197771502,0.0171999198184
8600000000.0,0.00283470439206,0.0174001939859,0.990812592715,-0.128975357146,0.990812592715,-0.128975357146,0.00283470439206,0.0174001939859
8700000000.0,0.0028880639517,0.0176004421301,0.9906107948,-0.130478425877,0.9906107948,-0.130478425877,0.0028880639517,0.0176004421301
8800000000.0,0.00294205718319,0.0178006653823,0.990406626288,-0.131981516246,0.990406626288,-0.131981516246,0.00294205718319,0.0178006653823
8900000000.0,0.0029966848903,0.0180008648803,0.990200085829,-0.133484625729,0.990200085829,-0.133484625729,0.0029966848903,0.0180008648803
9000000000.0,0.00305194789147,0.0182010417686,0.989991172072,-0.13498775179,0.989991172072,-0.13498775179,0.00305194789147,0.0182010417686
9100000000.0,0.0031078470198,0.0184011971977,0.989779883664,-0.136490891874,0.989779883664,-0.136490891874,0.0031078470198,0.0184011971977
9200000000.0,0.0031643831232,0.0186013323239,0.989566219249,-0.137994043407,0.989566219249,-0.137994043407,0.0031643831232,0.0186013323239
9300000000.0,0.00322155706441,0.018801448309,0.989350177471,-0.139497203803,0.989350177471,-0.139497203803,0.00322155706441,0.018801448309
9400000000.0,0.00327936972107,0.0190015463197,0.98913175697,-0.141000370457,0.98913175697,-0.141000370457,0.00327936972107,0.0190015463197
9500000000.0,0.00333782198579,0.0192016275274,0.988910956384,-0.142503540749,0.988910956384,-0.142503540749,0.00333782198579,0.0192016275274
9600000000.0,0.00339691476622,0.0194016931083,0.98868777435,-0.144006712041,0.98868777435,-0.144006712041,0.00339691476622,0.0194016931083
9700000000.0,0.00345664898508,0.0196017442422,0.988462209503,-0.145509881684,0.988462209503,-0.145509881684,0.00345664898508,0.0196017442422
9800000000.0,0.00351702558022,0.0198017821132,0.988234260475,-0.147013047008,0.988234260475,-0.147013047008,0.00351702558022,0.0198017821132
9900000000.0,0.00357804550467,0.0200018079085,0.988003925896,-0.148516205333,0.988003925896,-0.148516205333,0.00357804550467,0.0200018079085
10000000000.0,0.0036397097267,0.0202018228187,0.987771204396,-0.15001935396,0.987771204396,-0.15001935396,0.0036397097267,0.0202018228187
