freq (GHz),S11_real,S11_imag,S21_real,S21_imag,S12_real,S12_imag,S22_real,S22_imag
100000000.0,0.00354907881915,0.00136742595838,0.996446907401,-0.00305959092902,0.996446907401,-0.00305959092902,0.00354907881915,0.00136742595838
200000000.0,0.00358447149684,0.0027345911078,0.996405633963,-0.00611893761966,0.996405633963,-0.00611893761966,0.00358447149683,0.0027345911078
300000000.0,0.00362202288331,0.00410152355764,0.996359334588,-0.00917807895038,0.996359334588,-0.00917807895038,0.00362202288331,0.00410152355764
400000000.0,0.00366480154168,0.00546819659926,0.996304940397,-0.0122369962675,0.996304940397,-0.0122369962675,0.00366480154168,0.00546819659926
500000000.0,0.00371398805339,0.00683457081529,0.996241270438,-0.0152956568326,0.996241270438,-0.0152956568326,0.00371398805339,0.00683457081529
600000000.0,0.0037701833122,0.00820060119389,0.996167723385,-0.0183540214078,0.996167723385,-0.0183540214078,0.0037701833122,0.00820060119389
700000000.0,0.00383374106864,0.00956623968435,0.996083945005,-0.0214120470523,0.996083945005,-0.0214120470523,0.00383374106864,0.00956623968435
800000000.0,0.00390488928203,0.0109314363832,0.995989706805,-0.0244696884529,0.995989706805,-0.0244696884529,0.00390488928203,0.0109314363832
900000000.0,0.00398378414459,0.0122961401717,0.995884852013,-0.0275268986572,0.995884852013,-0.0275268986572,0.00398378414459,0.0122961401717
1000000000.0,0.00407053746076,0.0136602990941,0.995769268196,-0.0305836295187,0.995769268196,-0.0305836295187,0.00407053746076,0.0136602990941
1100000000.0,0.00416523186432,0.0150238605985,0.995642872052,-0.0336398319878,0.995642872052,-0.0336398319878,0.00416523186432,0.0150238605985
1200000000.0,0.00426792988424,0.0163867716982,0.995505600338,-0.0366954563118,0.995505600338,-0.0366954563118,0.00426792988424,0.0163867716982
1300000000.0,0.00437867964735,0.0177489790864,0.995357404173,-0.0397504521782,0.995357404173,-0.0397504521782,0.00437867964735,0.0177489790864
1400000000.0,0.00449751862609,0.0191104292178,0.995198245292,-0.0428047688223,0.995198245292,-0.0428047688223,0.00449751862609,0.0191104292178
1500000000.0,0.00462447619176,0.0204710683713,0.995028093493,-0.0458583551086,0.995028093493,-0.0458583551086,0.00462447619176,0.0204710683713
1600000000.0,0.00475957540751,0.0218308426976,0.994846924843,-0.0489111595958,0.994846924843,-0.0489111595958,0.00475957540751,0.0218308426976
1700000000.0,0.00490283432037,0.0231896982567,0.994654720391,-0.0519631305882,0.994654720391,-0.0519631305882,0.00490283432037,0.0231896982567
1800000000.0,0.00505426691301,0.0245475810481,0.994451465213,-0.0550142161778,0.994451465213,-0.0550142161778,0.00505426691301,0.0245475810481
1900000000.0,0.00521388381877,0.0259044370353,0.994237147702,-0.05806436428,0.994237147702,-0.05806436428,0.00521388381877,0.0259044370353
2000000000.0,0.00538169286796,0.0272602121668,0.994011759019,-0.0611135226631,0.994011759019,-0.0611135226631,0.00538169286796,0.0272602121668
2100000000.0,0.0055576995117,0.0286148523928,0.993775292672,-0.0641616389735,0.993775292672,-0.0641616389735,0.0055576995117,0.0286148523928
2200000000.0,0.0057419071551,0.0299683036808,0.993527744183,-0.0672086607582,0.993527744183,-0.0672086607582,0.0057419071551,0.0299683036808
2300000000.0,0.00593431742265,0.0313205120277,0.993269110821,-0.0702545354837,0.993269110821,-0.0702545354837,0.00593431742265,0.0313205120277
2400000000.0,0.00613493037161,0.0326714234715,0.992999391394,-0.0732992105532,0.992999391394,-0.0732992105532,0.00613493037161,0.0326714234715
2500000000.0,0.00634374466569,0.0340209841017,0.992718586073,-0.0763426333222,0.992718586073,-0.0763426333222,0.00634374466569,0.0340209841017
2600000000.0,0.00656075771746,0.0353691400675,0.992426696249,-0.0793847511117,0.992426696249,-0.0793847511117,0.00656075771746,0.0353691400675
2700000000.0,0.00678596580628,0.0367158375866,0.992123724417,-0.0824255112209,0.992123724417,-0.0824255112209,0.00678596580628,0.0367158375866
2800000000.0,0.00701936417661,0.0380610229524,0.991809674081,-0.0854648609389,0.991809674081,-0.0854648609389,0.00701936417661,0.0380610229524
2900000000.0,0.00726094712075,0.0394046425408,0.991484549666,-0.0885027475548,0.991484549666,-0.0885027475548,0.00726094712075,0.0394046425408
3000000000.0,0.00751070804871,0.0407466428169,0.991148356452,-0.0915391183674,0.991148356452,-0.0915391183674,0.00751070804871,0.0407466428169
3100000000.0,0.00776863954785,0.0420869703404,0.990801100517,-0.0945739206944,0.990801100517,-0.0945739206944,0.00776863954785,0.0420869703404
3200000000.0,0.00803473343396,0.0434255717718,0.990442788681,-0.0976071018811,0.990442788681,-0.0976071018811,0.00803473343396,0.0434255717718
3300000000.0,0.00830898079522,0.044762393877,0.990073428465,-0.100638609308,0.990073428465,-0.100638609308,0.00830898079522,0.044762393877
3400000000.0,0.00859137203044,0.0460973835329,0.989693028057,-0.103668390397,0.989693028057,-0.103668390397,0.00859137203044,0.0460973835329
3500000000.0,0.00888189688227,0.047430487732,0.989301596271,-0.106696392623,0.989301596271,-0.106696392623,0.00888189688227,0.047430487732
3600000000.0,0.00918054446634,0.0487616535868,0.988899142526,-0.109722563514,0.988899142526,-0.109722563514,0.00918054446634,0.0487616535868
3700000000.0,0.00948730329696,0.0500908283343,0.988485676816,-0.112746850663,0.988485676816,-0.112746850663,0.00948730329696,0.0500908283343
3800000000.0,0.00980216130976,0.0514179593403,0.988061209689,-0.115769201732,0.988061209689,-0.115769201732,0.00980216130976,0.0514179593403
3900000000.0,0.0101251058819,0.0527429941034,0.987625752229,-0.118789564458,0.987625752229,-0.118789564458,0.0101251058819,0.0527429941034
4000000000.0,0.01045612385,0.0540658802591,0.987179316033,-0.121807886658,0.987179316033,-0.121807886658,0.01045612385,0.0540658802591
4100000000.0,0.0107952015264,0.0553865655836,0.986721913204,-0.124824116236,0.986721913204,-0.124824116236,0.0107952015264,0.0553865655836
4200000000.0,0.0111423247136,0.0567049979974,0.986253556326,-0.127838201188,0.986253556326,-0.127838201188,0.0111423247136,0.0567049979974
4300000000.0,0.0114974787177,0.0580211255693,0.985774258459,-0.130850089604,0.985774258459,-0.130850089604,0.0114974787177,0.0580211255693
4400000000.0,0.0118606483598,0.0593348965197,0.985284033127,-0.13385972968,0.985284033127,-0.13385972968,0.0118606483598,0.0593348965197
4500000000.0,0.0122318179876,0.0606462592242,0.984782894301,-0.136867069714,0.984782894301,-0.136867069714,0.0122318179876,0.0606462592242
4600000000.0,0.0126109714847,0.0619551622172,0.984270856397,-0.139872058117,0.984270856397,-0.139872058117,0.0126109714847,0.0619551622172
4700000000.0,0.0129980922804,0.0632615541948,0.983747934262,-0.142874643417,0.983747934262,-0.142874643417,0.0129980922804,0.0632615541948
4800000000.0,0.0133931633579,0.0645653840188,0.983214143167,-0.145874774258,0.983214143167,-0.145874774258,0.0133931633579,0.0645653840188
4900000000.0,0.0137961672621,0.0658666007195,0.9826694988,-0.148872399413,0.9826694988,-0.148872399413,0.0137961672621,0.0658666007195
5000000000.0,0.0142070861072,0.0671651534988,0.982114017259,-0.151867467779,0.982114017259,-0.151867467779,0.0142070861072,0.0671651534988
5100000000.0,0.0146259015832,0.0684609917337,0.981547715045,-0.15485992839,0.981547715045,-0.15485992839,0.0146259015832,0.0684609917337
5200000000.0,0.0150525949627,0.0697540649793,0.980970609055,-0.157849730414,0.980970609055,-0.157849730414,0.0150525949627,0.0697540649793
5300000000.0,0.0154871471065,0.0710443229717,0.980382716576,-0.16083682316,0.980382716576,-0.16083682316,0.0154871471065,0.0710443229717
5400000000.0,0.01592953847,0.0723317156311,0.979784055283,-0.163821156081,0.979784055283,-0.163821156081,0.01592953847,0.0723317156311
5500000000.0,0.0163797491076,0.073616193065,0.97917464323,-0.166802678781,0.97917464323,-0.166802678781,0.0163797491076,0.073616193065
5600000000.0,0.0168377586788,0.0748977055706,0.978554498844,-0.169781341012,0.978554498844,-0.169781341012,0.0168377586788,0.0748977055706
5700000000.0,0.0173035464527,0.0761762036384,0.977923640925,-0.172757092684,0.977923640925,-0.172757092684,0.0173035464527,0.0761762036384
5800000000.0,0.0177770913126,0.0774516379543,0.977282088638,-0.175729883867,0.977282088638,-0.175729883867,0.0177770913126,0.0774516379543
5900000000.0,0.0182583717607,0.0787239594031,0.97662986151,-0.178699664791,0.97662986151,-0.178699664791,0.0182583717607,0.0787239594031
6000000000.0,0.0187473659224,0.0799931190708,0.975966979425,-0.181666385855,0.975966979425,-0.181666385855,0.0187473659224,0.0799931190708
6100000000.0,0.0192440515504,0.0812590682477,0.97529346262,-0.184629997626,0.97529346262,-0.184629997626,0.0192440515504,0.0812590682477
6200000000.0,0.0197484060288,0.0825217584307,0.974609331683,-0.187590450843,0.974609331683,-0.187590450843,0.0197484060288,0.0825217584307
6300000000.0,0.0202604063771,0.0837811413265,0.973914607545,-0.190547696423,0.973914607545,-0.190547696423,0.0202604063771,0.0837811413265
6400000000.0,0.0207800292541,0.0850371688537,0.973209311481,-0.193501685462,0.973209311481,-0.193501685462,0.0207800292541,0.0850371688537
6500000000.0,0.0213072509614,0.086289793146,0.972493465105,-0.196452369238,0.972493465105,-0.196452369238,0.0213072509614,0.086289793146
6600000000.0,0.021842047447,0.0875389665542,0.971767090363,-0.199399699214,0.971767090363,-0.199399699214,0.021842047447,0.0875389665542
6700000000.0,0.0223843943094,0.0887846416493,0.971030209536,-0.202343627044,0.971030209536,-0.202343627044,0.0223843943094,0.0887846416493
6800000000.0,0.0229342668003,0.0900267712244,0.970282845231,-0.205284104571,0.970282845231,-0.205284104571,0.0229342668003,0.0900267712244
6900000000.0,0.0234916398288,0.0912653082978,0.969525020379,-0.208221083833,0.969525020379,-0.208221083833,0.0234916398288,0.0912653082978
7000000000.0,0.0240564879643,0.0925002061152,0.968756758235,-0.211154517069,0.968756758235,-0.211154517069,0.0240564879643,0.0925002061152
7100000000.0,0.0246287854398,0.093731418152,0.96797808237,-0.214084356713,0.96797808237,-0.214084356713,0.0246287854398,0.093731418152
7200000000.0,0.0252085061556,0.0949588981158,0.967189016672,-0.217010555407,0.967189016672,-0.217010555407,0.0252085061556,0.0949588981158
7300000000.0,0.0257956236822,0.0961825999489,0.96638958534,-0.219933065997,0.96638958534,-0.219933065997,0.0257956236822,0.0961825999489
7400000000.0,0.0263901112634,0.0974024778304,0.965579812882,-0.222851841537,0.965579812882,-0.222851841537,0.0263901112634,0.0974024778304
7500000000.0,0.0269919418198,0.0986184861787,0.964759724112,-0.225766835294,0.964759724112,-0.225766835294,0.0269919418198,0.0986184861787
7600000000.0,0.027601087952,0.0998305796537,0.963929344147,-0.228678000749,0.963929344147,-0.228678000749,0.027601087952,0.0998305796537
7700000000.0,0.0282175219432,0.101038713159,0.963088698403,-0.231585291598,0.963088698403,-0.231585291598,0.0282175219432,0.101038713159
7800000000.0,0.0288412157628,0.102242841844,0.962237812594,-0.234488661758,0.962237812594,-0.234488661758,0.0288412157628,0.102242841844
7900000000.0,0.0294721410693,0.103442921107,0.961376712727,-0.237388065367,0.961376712727,-0.237388065367,0.0294721410693,0.103442921107
8000000000.0,0.0301102692133,0.104638906594,0.960505425101,-0.240283456787,0.960505425101,-0.240283456787,0.0301102692133,0.104638906594
8100000000.0,0.0307555712408,0.105830754208,0.9596239763,-0.243174790609,0.9596239763,-0.243174790609,0.0307555712408,0.105830754208
8200000000.0,0.0314080178958,0.107018420102,0.958732393197,-0.246062021649,0.958732393197,-0.246062021649,0.0314080178958,0.107018420102
8300000000.0,0.0320675796237,0.108201860689,0.957830702944,-0.248945104958,0.957830702944,-0.248945104958,0.0320675796237,0.108201860689
8400000000.0,0.0327342265743,0.109381032637,0.956918932972,-0.251823995819,0.956918932972,-0.251823995819,0.0327342265743,0.109381032637
8500000000.0,0.0334079286045,0.110555892877,0.955997110991,-0.254698649752,0.955997110991,-0.254698649752,0.0334079286045,0.110555892877
8600000000.0,0.0340886552815,0.111726398603,0.955065264981,-0.257569022513,0.955065264981,-0.257569022513,0.0340886552815,0.111726398603
8700000000.0,0.0347763758859,0.112892507272,0.954123423194,-0.260435070101,0.954123423194,-0.260435070101,0.0347763758859,0.112892507272
8800000000.0,0.0354710594144,0.114054176608,0.95317161415,-0.263296748756,0.95317161415,-0.263296748756,0.0354710594144,0.114054176608
8900000000.0,0.0361726745831,0.115211364602,0.952209866632,-0.266154014965,0.952209866632,-0.266154014965,0.0361726745831,0.115211364602
9000000000.0,0.0368811898303,0.116364029519,0.951238209685,-0.269006825458,0.951238209685,-0.269006825458,0.0368811898303,0.116364029519
9100000000.0,0.0375965733192,0.117512129891,0.950256672612,-0.271855137217,0.950256672612,-0.271855137217,0.0375965733192,0.117512129891
9200000000.0,0.0383187929416,0.118655624526,0.949265284975,-0.274698907475,0.949265284975,-0.274698907475,0.0383187929416,0.118655624526
9300000000.0,0.03904781632,0.119794472508,0.948264076585,-0.277538093714,0.948264076585,-0.277538093714,0.03904781632,0.119794472508
9400000000.0,0.0397836108114,0.120928633198,0.947253077505,-0.280372653675,0.947253077505,-0.280372653675,0.0397836108114,0.120928633198
9500000000.0,0.0405261435094,0.122058066234,0.946232318045,-0.283202545354,0.946232318045,-0.283202545354,0.0405261435094,0.122058066234
9600000000.0,0.0412753812482,0.123182731537,0.945201828758,-0.286027727004,0.945201828758,-0.286027727004,0.0412753812482,0.123182731537
9700000000.0,0.0420312906044,0.124302589309,0.94416164044,-0.288848157141,0.94416164044,-0.288848157141,0.0420312906044,0.124302589309
9800000000.0,0.042793837901,0.125417600035,0.943111784124,-0.291663794541,0.943111784124,-0.291663794541,0.042793837901,0.125417600035
9900000000.0,0.0435629892096,0.126527724487,0.942052291078,-0.294474598245,0.942052291078,-0.294474598245,0.0435629892096,0.126527724487
10000000000.0,0.044338710354,0.127632923723,0.940983192805,-0.297280527559,0.940983192805,-0.297280527559,0.044338710354,0.127632923723
