freq (GHz),S11_real,S11_imag,S21_real,S21_imag,S12_real,S12_imag,S22_real,S22_imag
100000000.0,-0.000265966100197,-0.0172598275661,0.999615719621,-0.0177940530913,0.999615719621,-0.0177940530913,-0.000265966100197,-0.0172598275661
200000000.0,-0.00120341663342,-0.0344866794569,0.998677035893,-0.0355552224893,0.998677035893,-0.0355552224893,-0.00120341663342,-0.0344866794569
300000000.0,-0.00275088738539,-0.0516488065465,0.997128249751,-0.0532518088345,0.997128249751,-0.0532518088345,-0.00275088738539,-0.0516488065465
400000000.0,-0.00490276473692,-0.0687147989733,0.994974872744,-0.0708524410652,0.994974872744,-0.0708524410652,-0.00490276473692,-0.0687147989733
500000000.0,-0.00765133125427,-0.085653793778,0.992224582907,-0.0883262894092,0.992224582907,-0.0883262894092,-0.00765133125427,-0.085653793778
600000000.0,-0.0109868092881,-0.10243566178,0.988887137637,-0.105643254118,0.988887137637,-0.105643254118,-0.0109868092881,-0.10243566178
700000000.0,-0.0148974392349,-0.119031181718,0.984974284387,-0.122774140557,0.984974284387,-0.122774140557,-0.0148974392349,-0.119031181718
800000000.0,-0.0193695780187,-0.135412201802,0.980499658173,-0.139690821329,0.980499658173,-0.139690821329,-0.0193695780187,-0.135412201802
900000000.0,-0.0243878136276,-0.151551787687,0.975478665253,-0.156366384632,0.975478665253,-0.156366384632,-0.0243878136276,-0.151551787687
1000000000.0,-0.0299350931327,-0.167424355703,0.969928354201,-0.172775267752,0.969928354201,-0.172775267752,-0.0299350931327,-0.167424355703
1100000000.0,-0.0359928619256,-0.18300579029,0.96386727618,-0.188893374713,0.96386727618,-0.188893374713,-0.0359928619256,-0.18300579029
1200000000.0,-0.0425412119664,-0.19827354485,0.957315336389,-0.204698177281,0.957315336389,-0.204698177281,-0.0425412119664,-0.19827354485
1300000000.0,-0.0495590368381,-0.213206725444,0.950293638831,-0.220168798786,0.950293638831,-0.220168798786,-0.0495590368381,-0.213206725444
1400000000.0,-0.0570241914191,-0.227786157074,0.942824326512,-0.235286080515,0.942824326512,-0.235286080515,-0.0570241914191,-0.227786157074
1500000000.0,-0.0649136540366,-0.241994432573,0.934930419216,-0.250032630683,0.934930419216,-0.250032630683,-0.0649136540366,-0.241994432573
1600000000.0,-0.0732036890427,-0.255815944366,0.92663565086,-0.264392856275,0.92663565086,-0.264392856275,-0.0732036890427,-0.255815944366
1700000000.0,-0.081870007874,-0.269236899651,0.917964308404,-0.27835297829,0.917964308404,-0.27835297829,-0.081870007874,-0.269236899651
1800000000.0,-0.0908879267978,-0.282245319728,0.908941074069,-0.291901031127,0.908941074069,-0.291901031127,-0.0908879267978,-0.282245319728
1900000000.0,-0.100232519719,-0.294831024445,0.899590872511,-0.305026847083,0.899590872511,-0.305026847083,-0.100232519719,-0.294831024445
2000000000.0,-0.109878764612,-0.30698560284,0.889938724374,-0.317722027039,0.889938724374,-0.317722027039,-0.109878764612,-0.30698560284
2100000000.0,-0.119801682328,-0.31870237123,0.880009607462,-0.329979898591,0.880009607462,-0.329979898591,-0.119801682328,-0.31870237123
2200000000.0,-0.129976466771,-0.329976320055,0.869828326567,-0.341795462935,0.869828326567,-0.341795462935,-0.129976466771,-0.329976320055
2300000000.0,-0.14037860559,-0.340804050874,0.859419392755,-0.353165331892,0.859419392755,-0.353165331892,-0.14037860559,-0.340804050874
2400000000.0,-0.150983990797,-0.351183704913,0.848806912753,-0.364087656488,0.848806912753,-0.364087656488,-0.150983990797,-0.351183704913
2500000000.0,-0.161769018873,-0.361114884589,0.83801448883,-0.374562048513,0.83801448883,-0.374562048513,-0.161769018873,-0.361114884589
2600000000.0,-0.172710680145,-0.370598569389,0.827065129422,-0.38458949642,0.827065129422,-0.38458949642,-0.172710680145,-0.370598569389
2700000000.0,-0.183786637352,-0.379637027449,0.81598117056,-0.394172276934,0.81598117056,-0.394172276934,-0.183786637352,-0.379637027449
2800000000.0,-0.194975293511,-0.388233724105,0.804784208003,-0.403313863622,0.804784208003,-0.403313863622,-0.194975293511,-0.388233724105
2900000000.0,-0.206255849298,-0.396393228609,0.793495039853,-0.412018833637,0.793495039853,-0.412018833637,-0.206255849298,-0.396393228609
3000000000.0,-0.217608350301,-0.404121120104,0.782133619304,-0.42029277371,0.782133619304,-0.42029277371,-0.217608350301,-0.404121120104
3100000000.0,-0.22901372458,-0.411423893865,0.770719017078,-0.428142186406,0.770719017078,-0.428142186406,-0.22901372458,-0.411423893865
3200000000.0,-0.240453811068,-0.418308868683,0.759269393018,-0.435574397538,0.759269393018,-0.435574397538,-0.240453811068,-0.418308868683
3300000000.0,-0.251911379399,-0.424784096191,0.74780197627,-0.442597465496,0.74780197627,-0.442597465496,-0.251911379399,-0.424784096191
3400000000.0,-0.263370141791,-0.430858272784,0.736333053392,-0.449220093197,0.736333053392,-0.449220093197,-0.263370141791,-0.430858272784
3500000000.0,-0.274814757649,-0.436540654728,0.72487796375,-0.455451543196,0.72487796375,-0.455451543196,-0.274814757649,-0.436540654728
3600000000.0,-0.286230831564,-0.441840976891,0.713451101521,-0.461301556442,0.713451101521,-0.461301556442,-0.286230831564,-0.441840976891
3700000000.0,-0.297604905397,-0.446769375494,0.702065923608,-0.466780275039,0.702065923608,-0.466780275039,-0.297604905397,-0.446769375494
3800000000.0,-0.3089244451,-0.451336315148,0.690734962819,-0.471898169293,0.690734962819,-0.471898169293,-0.3089244451,-0.451336315148
3900000000.0,-0.320177822956,-0.455552520366,0.679469845621,-0.476665969238,0.679469845621,-0.476665969238,-0.320177822956,-0.455552520366
4000000000.0,-0.331354295855,-0.459428911689,0.668281313876,-0.481094600781,0.668281313876,-0.481094600781,-0.331354295855,-0.459428911689
4100000000.0,-0.342443980197,-0.462976546474,0.657179249923,-0.485195126487,0.657179249923,-0.485195126487,-0.342443980197,-0.462976546474
4200000000.0,-0.353437824022,-0.466206564335,0.64617270446,-0.488978691044,0.64617270446,-0.488978691044,-0.353437824022,-0.466206564335
4300000000.0,-0.364327576853,-0.469130137193,0.635269926693,-0.492456471313,0.635269926693,-0.492456471313,-0.364327576853,-0.469130137193
4400000000.0,-0.375105757775,-0.471758423835,0.624478396259,-0.495639630903,0.624478396259,-0.495639630903,-0.375105757775,-0.471758423835
4500000000.0,-0.385765622182,-0.474102528852,0.613804856482,-0.498539279113,0.613804856482,-0.498539279113,-0.385765622182,-0.474102528852
4600000000.0,-0.396301127587,-0.476173465783,0.603255348556,-0.501166434091,0.603255348556,-0.501166434091,-0.396301127587,-0.476173465783
4700000000.0,-0.406706898889,-0.477982124307,0.592835246287,-0.503531990026,0.592835246287,-0.503531990026,-0.406706898889,-0.477982124307
4800000000.0,-0.416978193383,-0.47953924125,0.582549291073,-0.50564668817,0.582549291073,-0.50564668817,-0.416978193383,-0.47953924125
4900000000.0,-0.427110865832,-0.480855375217,0.572401626838,-0.507521091472,0.572401626838,-0.507521091472,-0.427110865832,-0.480855375217
5000000000.0,-0.43710133383,-0.48194088462,0.562395834669,-0.509165562615,0.562395834669,-0.509165562615,-0.43710133383,-0.48194088462
5100000000.0,-0.44694654367,-0.482805908866,0.552534966942,-0.510590245214,0.552534966942,-0.510590245214,-0.44694654367,-0.482805908866
5200000000.0,-0.456643936917,-0.4834603525,0.542821580756,-0.511805047957,0.542821580756,-0.511805047957,-0.456643936917,-0.4834603525
5300000000.0,-0.466191417815,-0.483913872056,0.533257770526,-0.512819631472,0.533257770526,-0.512819631472,-0.466191417815,-0.483913872056
5400000000.0,-0.475587321664,-0.484175865412,0.523845199594,-0.513643397679,0.523845199594,-0.513643397679,-0.475587321664,-0.484175865412
5500000000.0,-0.484830384275,-0.484255463426,0.514585130791,-0.514285481437,0.514585130791,-0.514285481437,-0.484830384275,-0.484255463426
5600000000.0,-0.493919712564,-0.484161523649,0.505478455828,-0.514754744259,0.505478455828,-0.514754744259,-0.493919712564,-0.484161523649
5700000000.0,-0.502854756356,-0.483902625922,0.496525723503,-0.515059769915,0.496525723503,-0.515059769915,-0.502854756356,-0.483902625922
5800000000.0,-0.511635281435,-0.483487069662,0.487727166643,-0.515208861724,0.487727166643,-0.515208861724,-0.511635281435,-0.483487069662
5900000000.0,-0.52026134386,-0.482922872664,0.479082727792,-0.515210041357,0.479082727792,-0.515210041357,-0.52026134386,-0.482922872664
6000000000.0,-0.528733265571,-0.48221777125,0.470592083602,-0.515071048995,0.470592083602,-0.515071048995,-0.528733265571,-0.48221777125
6100000000.0,-0.537051611269,-0.48137922162,0.462254667958,-0.514799344678,0.462254667958,-0.514799344678,-0.537051611269,-0.48137922162
6200000000.0,-0.545217166566,-0.480414402236,0.45406969382,-0.514402110698,0.45406969382,-0.514402110698,-0.545217166566,-0.480414402236
6300000000.0,-0.553230917396,-0.479330217134,0.446036173818,-0.513886254912,0.446036173818,-0.513886254912,-0.553230917396,-0.479330217134
6400000000.0,-0.561094030639,-0.478133300017,0.438152939627,-0.513258414839,0.438152939627,-0.513258414839,-0.561094030639,-0.478133300017
6500000000.0,-0.56880783595,-0.47683001903,0.430418660135,-0.512524962438,0.430418660135,-0.512524962438,-0.56880783595,-0.47683001903
6600000000.0,-0.576373808734,-0.475426482106,0.422831858472,-0.511692009457,0.422831858472,-0.511692009457,-0.576373808734,-0.475426482106
6700000000.0,-0.583793554247,-0.47392854279,0.415390927901,-0.51076541326,0.415390927901,-0.51076541326,-0.583793554247,-0.47392854279
6800000000.0,-0.59106879277,-0.47234180646,0.408094146657,-0.509750783049,0.408094146657,-0.509750783049,-0.59106879277,-0.47234180646
6900000000.0,-0.598201345804,-0.470671636854,0.400939691738,-0.5086534864,0.400939691738,-0.5086534864,-0.598201345804,-0.470671636854
7000000000.0,-0.605193123261,-0.468923162857,0.39392565172,-0.507478656044,0.39392565172,-0.507478656044,-0.605193123261,-0.468923162857
7100000000.0,-0.612046111582,-0.467101285459,0.387050038644,-0.506231196833,0.387050038644,-0.506231196833,-0.612046111582,-0.467101285459
7200000000.0,-0.618762362746,-0.465210684851,0.380310798994,-0.504915792835,0.380310798994,-0.504915792835,-0.618762362746,-0.465210684851
7300000000.0,-0.625343984129,-0.463255827594,0.373705823851,-0.503536914507,0.373705823851,-0.503536914507,-0.625343984129,-0.463255827594
7400000000.0,-0.631793129148,-0.461240973827,0.36723295824,-0.502098825906,0.36723295824,-0.502098825906,-0.631793129148,-0.461240973827
7500000000.0,-0.638111988666,-0.459170184474,0.36089000973,-0.500605591895,0.36089000973,-0.500605591895,-0.638111988666,-0.459170184474
7600000000.0,-0.644302783099,-0.45704732841,0.354674756323,-0.499061085312,0.354674756323,-0.499061085312,-0.644302783099,-0.45704732841
7700000000.0,-0.650367755188,-0.454876089572,0.348584953683,-0.497468994083,0.348584953683,-0.497468994083,-0.650367755188,-0.454876089572
7800000000.0,-0.656309163397,-0.452659973969,0.342618341739,-0.495832828236,0.342618341739,-0.495832828236,-0.656309163397,-0.452659973969
7900000000.0,-0.662129275889,-0.450402316595,0.336772650709,-0.49415592681,0.336772650709,-0.49415592681,-0.662129275889,-0.450402316595
8000000000.0,-0.667830365049,-0.448106288203,0.331045606575,-0.492441464634,0.331045606575,-0.492441464634,-0.667830365049,-0.448106288203
8100000000.0,-0.673414702514,-0.445774901943,0.325434936053,-0.490692458967,0.325434936053,-0.490692458967,-0.673414702514,-0.445774901943
8200000000.0,-0.678884554679,-0.443411019842,0.319938371089,-0.488911775979,0.319938371089,-0.488911775979,-0.678884554679,-0.443411019842
8300000000.0,-0.684242178638,-0.44101735912,0.314553652913,-0.487102137064,0.314553652913,-0.487102137064,-0.684242178638,-0.44101735912
8400000000.0,-0.689489818539,-0.438596498332,0.309278535692,-0.485266124988,0.309278535692,-0.485266124988,-0.689489818539,-0.438596498332
8500000000.0,-0.69462970231,-0.436150883333,0.304110789794,-0.483406189856,0.304110789794,-0.483406189856,-0.69462970231,-0.436150883333
8600000000.0,-0.699664038746,-0.433682833058,0.299048204708,-0.48152465489,0.299048204708,-0.48152465489,-0.699664038746,-0.433682833058
8700000000.0,-0.704595014911,-0.431194545124,0.294088591638,-0.479623722029,0.294088591638,-0.479623722029,-0.704595014911,-0.431194545124
8800000000.0,-0.709424793844,-0.428688101231,0.2892297858,-0.477705477339,0.2892297858,-0.477705477339,-0.709424793844,-0.428688101231
8900000000.0,-0.714155512542,-0.426165472391,0.284469648437,-0.475771896235,0.284469648437,-0.475771896235,-0.714155512542,-0.426165472391
9000000000.0,-0.718789280189,-0.423628523959,0.279806068586,-0.47382484852,0.279806068586,-0.47382484852,-0.718789280189,-0.423628523959
9100000000.0,-0.723328176633,-0.421079020484,0.27523696461,-0.47186610323,0.27523696461,-0.47186610323,-0.723328176633,-0.421079020484
9200000000.0,-0.727774251061,-0.418518630378,0.270760285512,-0.469897333309,0.270760285512,-0.469897333309,-0.727774251061,-0.418518630378
9300000000.0,-0.732129520883,-0.415948930399,0.266374012059,-0.467920120089,0.266374012059,-0.467920120089,-0.732129520883,-0.415948930399
9400000000.0,-0.736395970791,-0.413371409965,0.262076157721,-0.465935957607,0.262076157721,-0.465935957607,-0.736395970791,-0.413371409965
9500000000.0,-0.74057555198,-0.410787475286,0.257864769444,-0.463946256738,0.257864769444,-0.463946256738,-0.74057555198,-0.410787475286
9600000000.0,-0.744670181525,-0.408198453334,0.253737928282,-0.461952349161,0.253737928282,-0.461952349161,-0.744670181525,-0.408198453334
9700000000.0,-0.748681741889,-0.405605595643,0.249693749881,-0.459955491168,0.249693749881,-0.459955491168,-0.748681741889,-0.405605595643
9800000000.0,-0.752612080559,-0.403010081952,0.245730384849,-0.457956867299,0.245730384849,-0.457956867299,-0.752612080559,-0.403010081952
9900000000.0,-0.756463009791,-0.40041302369,0.241846019006,-0.455957593832,0.241846019006,-0.455957593832,-0.756463009791,-0.40041302369
10000000000.0,-0.760236306458,-0.397815467308,0.238038873536,-0.453958722115,0.238038873536,-0.453958722115,-0.760236306458,-0.397815467308
