freq (GHz),S11_real,S11_imag,S21_real,S21_imag,S12_real,S12_imag,S22_real,S22_imag
100000000.0,0.00428416210164,0.000893395273598,0.995713467942,-0.00185933725912,0.995713467942,-0.00185933725912,0.00428416210164,0.000893395273598
200000000.0,0.00431709029085,0.00178662161708,0.995678235378,-0.00371850955093,0.995678235378,-0.00371850955093,0.00431709029085,0.00178662161708
300000000.0,0.00434579363775,0.00267972844886,0.99564629319,-0.00557756920404,0.99564629319,-0.00557756920404,0.00434579363775,0.00267972844886
400000000.0,0.00437398225592,0.00357272402669,0.995613931211,-0.00743652671336,0.995613931211,-0.00743652671336,0.00437398225592,0.00357272402669
500000000.0,0.00440308568013,0.00446560704852,0.995579719848,-0.00929538267633,0.995579719848,-0.00929538267633,0.00440308568013,0.00446560704852
600000000.0,0.0044338331922,0.00535837198604,0.995542929752,-0.011154133244,0.995542929752,-0.011154133244,0.0044338331922,0.00535837198604
700000000.0,0.00446665564004,0.00625101099871,0.995503130002,-0.0130127720956,0.995503130002,-0.0130127720956,0.00446665564004,0.00625101099871
800000000.0,0.00450183211482,0.00714351482112,0.995460041425,-0.0148712913609,0.995460041425,-0.0148712913609,0.00450183211482,0.00714351482112
900000000.0,0.00453955526989,0.00803587323898,0.995413471281,-0.0167296821204,0.995413471281,-0.0167296821204,0.00453955526989,0.00803587323898
1000000000.0,0.0045799644347,0.00892807537077,0.995363280147,-0.0185879347034,0.995363280147,-0.0185879347034,0.0045799644347,0.00892807537077
1100000000.0,0.004623164025,0.00982010984643,0.995309363509,-0.0204460388788,0.995309363509,-0.0204460388788,0.004623164025,0.00982010984643
1200000000.0,0.00466923451451,0.010711964927,0.995251640786,-0.022303983984,0.995251640786,-0.022303983984,0.00466923451451,0.010711964927
1300000000.0,0.00471823933864,0.0116036285879,0.995190048432,-0.0241617590158,0.995190048432,-0.0241617590158,0.00471823933864,0.0116036285879
1400000000.0,0.0047702294328,0.0124950885793,0.995124535395,-0.0260193526964,0.995124535395,-0.0260193526964,0.0047702294328,0.0124950885793
1500000000.0,0.00482524632531,0.0133863324708,0.995055060024,-0.0278767535226,0.995055060024,-0.0278767535226,0.00482524632531,0.0133863324708
1600000000.0,0.00488332430987,0.0142773476853,0.994981587896,-0.0297339498045,0.994981587896,-0.0297339498045,0.00488332430987,0.0142773476853
1700000000.0,0.00494449201131,0.0151681215253,0.994904090253,-0.0315909296945,0.994904090253,-0.0315909296945,0.00494449201131,0.0151681215253
1800000000.0,0.00500877353935,0.016058641194,0.994822542848,-0.0334476812114,0.994822542848,-0.0334476812114,0.00500877353935,0.016058641194
1900000000.0,0.00507618935543,0.0169488938117,0.994736925075,-0.0353041922593,0.994736925075,-0.0353041922593,0.00507618935543,0.0169488938117
2000000000.0,0.00514675693495,0.0178388664291,0.99464721931,-0.0371604506437,0.99464721931,-0.0371604506437,0.00514675693495,0.0178388664291
2100000000.0,0.00522049128111,0.0187285460393,0.994553410395,-0.0390164440841,0.994553410395,-0.0390164440841,0.00522049128111,0.0187285460393
2200000000.0,0.0052974053288,0.0196179195861,0.994455485238,-0.0408721602253,0.994455485238,-0.0408721602253,0.0052974053288,0.0196179195861
2300000000.0,0.00537751026601,0.0205069739723,0.994353432488,-0.0427275866465,0.994353432488,-0.0427275866465,0.00537751026601,0.0205069739723
2400000000.0,0.00546081579242,0.0213956960662,0.994247242275,-0.0445827108693,0.994247242275,-0.0445827108693,0.00546081579242,0.0213956960662
2500000000.0,0.00554733032948,0.0222840727073,0.994136906008,-0.0464375203646,0.994136906008,-0.0464375203646,0.00554733032948,0.0222840727073
2600000000.0,0.00563706119259,0.0231720907112,0.994022416193,-0.0482920025584,0.994022416193,-0.0482920025584,0.00563706119259,0.0231720907112
2700000000.0,0.00573001473354,0.0240597368735,0.993903766296,-0.0501461448372,0.993903766296,-0.0501461448372,0.00573001473354,0.0240597368735
2800000000.0,0.005826196459,0.0249469979739,0.993780950625,-0.0519999345526,0.993780950625,-0.0519999345526,0.005826196459,0.0249469979739
2900000000.0,0.00592561113007,0.0258338607793,0.993653964229,-0.0538533590252,0.993653964229,-0.0538533590252,0.00592561113007,0.0258338607793
3000000000.0,0.00602826284619,0.0267203120466,0.993522802814,-0.0557064055485,0.993522802814,-0.0557064055485,0.00602826284619,0.0267203120466
3100000000.0,0.00613415511647,0.0276063385254,0.993387462671,-0.0575590613919,0.993387462671,-0.0575590613919,0.00613415511647,0.0276063385254
3200000000.0,0.00624329092063,0.0284919269602,0.993247940617,-0.0594113138039,0.993247940617,-0.0594113138039,0.00624329092063,0.0284919269602
3300000000.0,0.00635567276129,0.0293770640924,0.993104233944,-0.0612631500144,0.993104233944,-0.0612631500144,0.00635567276129,0.0293770640924
3400000000.0,0.00647130270908,0.0302617366625,0.99295634037,-0.0631145572377,0.99295634037,-0.0631145572377,0.00647130270908,0.0302617366625
3500000000.0,0.00659018244181,0.0311459314112,0.992804258,-0.0649655226741,0.992804258,-0.0649655226741,0.00659018244181,0.0311459314112
3600000000.0,0.00671231327847,0.0320296350816,0.992647985298,-0.0668160335123,0.992647985298,-0.0668160335123,0.00671231327847,0.0320296350816
3700000000.0,0.00683769620903,0.0329128344202,0.992487521049,-0.0686660769312,0.992487521049,-0.0686660769312,0.00683769620903,0.0329128344202
3800000000.0,0.00696633192056,0.0337955161784,0.99232286434,-0.0705156401017,0.99232286434,-0.0705156401017,0.00696633192056,0.0337955161784
3900000000.0,0.00709822082025,0.0346776671135,0.992154014533,-0.0723647101882,0.992154014533,-0.0723647101882,0.00709822082025,0.0346776671135
4000000000.0,0.00723336305572,0.0355592739901,0.991980971245,-0.0742132743502,0.991980971245,-0.0742132743502,0.00723336305572,0.0355592739901
4100000000.0,0.00737175853305,0.0364403235809,0.991803734332,-0.0760613197434,0.991803734332,-0.0760613197434,0.00737175853305,0.0364403235809
4200000000.0,0.00751340693285,0.037320802668,0.991622303872,-0.0779088335216,0.991622303872,-0.0779088335216,0.00751340693285,0.037320802668
4300000000.0,0.00765830772453,0.0382006980432,0.991436680148,-0.0797558028373,0.991436680148,-0.0797558028373,0.00765830772453,0.0382006980432
4400000000.0,0.00780646017912,0.0390799965097,0.991246863641,-0.0816022148433,0.991246863641,-0.0816022148433,0.00780646017912,0.0390799965097
4500000000.0,0.00795786338077,0.0399586848822,0.991052855013,-0.0834480566937,0.991052855013,-0.0834480566937,0.00795786338077,0.0399586848822
4600000000.0,0.00811251623703,0.0408367499879,0.9908546551,-0.0852933155448,0.9908546551,-0.0852933155448,0.00811251623703,0.0408367499879
4700000000.0,0.00827041748822,0.0417141786675,0.990652264901,-0.0871379785562,0.990652264901,-0.0871379785562,0.00827041748822,0.0417141786675
4800000000.0,0.00843156571582,0.0425909577755,0.990445685571,-0.0889820328917,0.990445685571,-0.0889820328917,0.00843156571582,0.0425909577755
4900000000.0,0.00859595935011,0.043467074181,0.990234918414,-0.0908254657202,0.990234918414,-0.0908254657202,0.00859595935011,0.043467074181
5000000000.0,0.00876359667709,0.0443425147685,0.990019964871,-0.0926682642168,0.990019964871,-0.0926682642168,0.00876359667709,0.0443425147685
5100000000.0,0.00893447584479,0.0452172664382,0.989800826522,-0.0945104155631,0.989800826522,-0.0945104155631,0.00893447584479,0.0452172664382
5200000000.0,0.00910859486903,0.0460913161068,0.989577505072,-0.0963519069485,0.989577505072,-0.0963519069485,0.00910859486903,0.0460913161068
5300000000.0,0.00928595163866,0.0469646507081,0.989350002352,-0.0981927255705,0.989350002352,-0.0981927255705,0.00928595163866,0.0469646507081
5400000000.0,0.00946654392038,0.0478372571934,0.989118320312,-0.100032858636,0.989118320312,-0.100032858636,0.00946654392038,0.0478372571934
5500000000.0,0.00965036936316,0.0487091225319,0.988882461015,-0.101872293361,0.988882461015,-0.101872293361,0.00965036936316,0.0487091225319
5600000000.0,0.00983742550228,0.0495802337116,0.988642426634,-0.103711016974,0.988642426634,-0.103711016974,0.00983742550228,0.0495802337116
5700000000.0,0.0100277097631,0.0504505777395,0.988398219451,-0.105549016711,0.988398219451,-0.105549016711,0.0100277097631,0.0504505777395
5800000000.0,0.0102212194645,0.0513201416422,0.98814984185,-0.107386279823,0.98814984185,-0.107386279823,0.0102212194645,0.0513201416422
5900000000.0,0.010417951822,0.0521889124661,0.987897296314,-0.109222793572,0.987897296314,-0.109222793572,0.010417951822,0.0521889124661
6000000000.0,0.0106179039508,0.0530568772782,0.987640585425,-0.111058545232,0.987640585425,-0.111058545232,0.0106179039508,0.0530568772782
6100000000.0,0.0108210728686,0.0539240231664,0.987379711858,-0.112893522094,0.987379711858,-0.112893522094,0.0108210728685,0.0539240231664
6200000000.0,0.0110274554977,0.05479033724,0.987114678382,-0.114727711459,0.987114678382,-0.114727711459,0.0110274554977,0.05479033724
6300000000.0,0.0112370486681,0.0556558066298,0.986845487854,-0.116561100645,0.986845487854,-0.116561100645,0.0112370486681,0.0556558066298
6400000000.0,0.011449849119,0.0565204184889,0.986572143217,-0.118393676984,0.986572143217,-0.118393676984,0.011449849119,0.0565204184889
6500000000.0,0.0116658535012,0.0573841599931,0.986294647503,-0.120225427825,0.986294647503,-0.120225427825,0.0116658535012,0.0573841599931
6600000000.0,0.0118850583791,0.0582470183407,0.986013003825,-0.122056340533,0.986013003825,-0.122056340533,0.0118850583791,0.0582470183407
6700000000.0,0.0121074602323,0.0591089807539,0.985727215377,-0.123886402488,0.985727215377,-0.123886402488,0.0121074602323,0.0591089807539
6800000000.0,0.0123330554573,0.0599700344782,0.985437285437,-0.12571560109,0.985437285437,-0.12571560109,0.0123330554573,0.0599700344782
6900000000.0,0.0125618403693,0.0608301667833,0.985143217356,-0.127543923754,0.985143217356,-0.127543923754,0.0125618403693,0.0608301667833
7000000000.0,0.0127938112033,0.0616893649633,0.984845014567,-0.129371357914,0.984845014567,-0.129371357914,0.0127938112033,0.0616893649633
7100000000.0,0.013028964116,0.0625476163372,0.984542680575,-0.131197891025,0.984542680575,-0.131197891025,0.013028964116,0.0625476163372
7200000000.0,0.0132672951868,0.0634049082491,0.984236218961,-0.133023510557,0.984236218961,-0.133023510557,0.0132672951868,0.0634049082491
7300000000.0,0.013508800419,0.0642612280687,0.983925633379,-0.134848204003,0.983925633379,-0.134848204003,0.013508800419,0.0642612280687
7400000000.0,0.0137534757412,0.0651165631913,0.983610927555,-0.136671958874,0.983610927555,-0.136671958874,0.0137534757412,0.0651165631913
7500000000.0,0.0140013170085,0.0659709010387,0.983292105284,-0.138494762702,0.983292105284,-0.138494762702,0.0140013170085,0.0659709010387
7600000000.0,0.0142523200031,0.0668242290589,0.982969170435,-0.14031660304,0.982969170435,-0.14031660304,0.0142523200031,0.0668242290589
7700000000.0,0.0145064804358,0.0676765347271,0.98264212694,-0.142137467461,0.98264212694,-0.142137467461,0.0145064804358,0.0676765347271
7800000000.0,0.0147637939468,0.0685278055455,0.982310978804,-0.143957343562,0.982310978804,-0.143957343562,0.0147637939468,0.0685278055455
7900000000.0,0.0150242561065,0.0693780290437,0.981975730096,-0.14577621896,0.981975730096,-0.14577621896,0.0150242561065,0.0693780290437
8000000000.0,0.0152878624165,0.0702271927792,0.981636384951,-0.147594081295,0.981636384951,-0.147594081295,0.0152878624165,0.0702271927792
8100000000.0,0.0155546083105,0.0710752843378,0.981292947571,-0.14941091823,0.981292947571,-0.14941091823,0.0155546083105,0.0710752843378
8200000000.0,0.0158244891549,0.0719222913335,0.980945422221,-0.151226717452,0.980945422221,-0.151226717452,0.0158244891549,0.0719222913335
8300000000.0,0.0160975002497,0.0727682014091,0.98059381323,-0.153041466669,0.98059381323,-0.153041466669,0.0160975002497,0.0727682014091
8400000000.0,0.0163736368294,0.0736130022366,0.98023812499,-0.154855153615,0.98023812499,-0.154855153615,0.0163736368294,0.0736130022366
8500000000.0,0.0166528940632,0.0744566815172,0.979878361956,-0.156667766049,0.979878361956,-0.156667766049,0.0166528940632,0.0744566815172
8600000000.0,0.0169352670563,0.0752992269817,0.979514528643,-0.158479291752,0.979514528643,-0.158479291752,0.0169352670563,0.0752992269817
8700000000.0,0.0172207508502,0.0761406263911,0.979146629628,-0.160289718533,0.979146629628,-0.160289718533,0.0172207508502,0.0761406263911
8800000000.0,0.0175093404233,0.0769808675364,0.978774669549,-0.162099034225,0.978774669549,-0.162099034225,0.0175093404233,0.0769808675364
8900000000.0,0.0178010306917,0.0778199382391,0.978398653102,-0.163907226686,0.978398653102,-0.163907226686,0.0178010306917,0.0778199382391
9000000000.0,0.0180958165097,0.0786578263517,0.978018585043,-0.165714283801,0.978018585043,-0.165714283801,0.0180958165098,0.0786578263517
9100000000.0,0.0183936926704,0.0794945197577,0.977634470187,-0.167520193481,0.977634470187,-0.167520193481,0.0183936926704,0.0794945197577
9200000000.0,0.0186946539061,0.0803300063719,0.977246313408,-0.169324943665,0.977246313408,-0.169324943665,0.0186946539061,0.0803300063719
9300000000.0,0.0189986948892,0.0811642741409,0.976854119635,-0.171128522317,0.976854119635,-0.171128522317,0.0189986948892,0.0811642741409
9400000000.0,0.0193058102322,0.081997311043,0.976457893855,-0.172930917431,0.976457893855,-0.172930917431,0.0193058102322,0.081997311043
9500000000.0,0.0196159944887,0.0828291050889,0.976057641112,-0.174732117025,0.976057641112,-0.174732117025,0.0196159944887,0.0828291050889
9600000000.0,0.0199292421537,0.0836596443216,0.975653366507,-0.17653210915,0.975653366507,-0.17653210915,0.0199292421537,0.0836596443216
9700000000.0,0.020245547664,0.084488916817,0.975245075194,-0.17833088188,0.975245075194,-0.17833088188,0.020245547664,0.084488916817
9800000000.0,0.0205649053988,0.085316910684,0.974832772384,-0.180128423323,0.974832772384,-0.180128423323,0.0205649053988,0.085316910684
9900000000.0,0.0208873096801,0.0861436140644,0.974416463343,-0.181924721611,0.974416463343,-0.181924721611,0.0208873096801,0.0861436140644
10000000000.0,0.0212127547731,0.0869690151341,0.97399615339,-0.18371976491,0.97399615339,-0.18371976491,0.0212127547731,0.0869690151341
