freq (GHz),S11_real,S11_imag,S21_real,S21_imag,S12_real,S12_imag,S22_real,S22_imag
100000000.0,2.93836319929e-05,-0.00318698609401,0.999940489354,-0.0035272072546,0.999940489354,-0.0035272072546,2.93836319929e-05,-0.00318698609401
200000000.0,-7.3339072939e-06,-0.00637391555098,0.999902995437,-0.00705438380557,0.999902995437,-0.00705438380557,-7.33390729402e-06,-0.00637391555098
300000000.0,-6.66146094477e-05,-0.00956067082349,0.999842976566,-0.0105814259012,0.999842976566,-0.0105814259012,-6.66146094475e-05,-0.00956067082349
400000000.0,-0.000148421285493,-0.0127471080994,0.999760393285,-0.014108200335,0.999760393285,-0.014108200335,-0.000148421285493,-0.0127471080994
500000000.0,-0.000252739167981,-0.0159330698256,0.999655230911,-0.0176345585721,0.999655230911,-0.0176345585721,-0.000252739167981,-0.0159330698256
600000000.0,-0.000379559245141,-0.0191183891725,0.999527483451,-0.0211603417619,0.999527483451,-0.0211603417619,-0.000379559245142,-0.0191183891725
700000000.0,-0.000528873894974,-0.0223028923504,0.999377149655,-0.0246853833324,0.999377149655,-0.0246853833324,-0.000528873894973,-0.0223028923504
800000000.0,-0.000700675206372,-0.0254864000292,0.999204231671,-0.0282095105759,0.999204231671,-0.0282095105759,-0.000700675206372,-0.0254864000292
900000000.0,-0.000894954170839,-0.028668728297,0.999008734505,-0.0317325457165,0.999008734505,-0.0317325457165,-0.000894954170839,-0.028668728297
1000000000.0,-0.0011117002276,-0.0318496893575,0.998790665798,-0.0352543066849,0.998790665798,-0.0352543066849,-0.0011117002276,-0.0318496893575
1100000000.0,-0.00135090097595,-0.035029092063,0.998550035733,-0.0387746077078,0.998550035733,-0.0387746077078,-0.00135090097595,-0.035029092063
1200000000.0,-0.00161254197651,-0.0382067423388,0.998286857013,-0.0422932597765,0.998286857013,-0.0422932597765,-0.00161254197651,-0.0382067423388
1300000000.0,-0.00189660660428,-0.041382443534,0.998001144864,-0.0458100710315,0.998001144864,-0.0458100710315,-0.00189660660428,-0.041382443534
1400000000.0,-0.00220307593439,-0.0445559967162,0.997692917058,-0.0493248470856,0.997692917058,-0.0493248470856,-0.00220307593439,-0.0445559967162
1500000000.0,-0.00253192864989,-0.0477272009279,0.997362193942,-0.0528373913033,0.997362193942,-0.0528373913033,-0.00253192864989,-0.0477272009279
1600000000.0,-0.00288314096515,-0.050895853412,0.997008998472,-0.0563475050452,0.997008998472,-0.0563475050452,-0.00288314096515,-0.050895853412
1700000000.0,-0.00325668656118,-0.0540617498134,0.996633356246,-0.0598549878864,0.996633356246,-0.0598549878864,-0.00325668656118,-0.0540617498134
1800000000.0,-0.00365253653012,-0.0572246843622,0.996235295532,-0.0633596378141,0.996235295532,-0.0633596378141,-0.00365253653012,-0.0572246843622
1900000000.0,-0.00407065932729,-0.0603844500418,0.995814847306,-0.0668612514076,0.995814847306,-0.0668612514076,-0.00407065932729,-0.0603844500418
2000000000.0,-0.00451102072953,-0.0635408387445,0.995372045275,-0.070359624005,0.995372045275,-0.070359624005,-0.00451102072953,-0.0635408387445
2100000000.0,-0.00497358379897,-0.0666936414173,0.994906925905,-0.0738545498589,0.994906925905,-0.0738545498589,-0.00497358379897,-0.0666936414173
2200000000.0,-0.00545830885165,-0.0698426481982,0.994419528443,-0.0773458222808,0.994419528443,-0.0773458222808,-0.00545830885165,-0.0698426481982
2300000000.0,-0.0059651534304,-0.0729876485463,0.99390989494,-0.0808332337799,0.99390989494,-0.0808332337799,-0.0059651534304,-0.0729876485463
2400000000.0,-0.00649407228156,-0.0761284313645,0.993378070269,-0.0843165761919,0.993378070269,-0.0843165761919,-0.00649407228156,-0.0761284313645
2500000000.0,-0.00704501733542,-0.0792647851178,0.992824102138,-0.0877956408042,0.992824102138,-0.0877956408042,-0.00704501733542,-0.0792647851178
2600000000.0,-0.00761793768991,-0.0823964979455,0.992248041105,-0.0912702184742,0.992248041105,-0.0912702184742,-0.00761793768991,-0.0823964979455
2700000000.0,-0.00821277959745,-0.0855233577706,0.991649940589,-0.0947400997437,0.991649940589,-0.0947400997437,-0.00821277959746,-0.0855233577706
2800000000.0,-0.00882948645473,-0.088645152404,0.991029856877,-0.0982050749481,0.991029856877,-0.0982050749481,-0.00882948645473,-0.088645152404
2900000000.0,-0.00946799879534,-0.091761669646,0.990387849129,-0.101664934323,0.990387849129,-0.101664934323,-0.00946799879534,-0.091761669646
3000000000.0,-0.0101282542849,-0.0948726973842,0.989723979381,-0.105119468106,0.989723979381,-0.105119468106,-0.0101282542849,-0.0948726973842
3100000000.0,-0.0108101877192,-0.0979780236891,0.98903831255,-0.108568466636,0.98903831255,-0.108568466636,-0.0108101877192,-0.0979780236891
3200000000.0,-0.0115137310237,-0.101077436906,0.988330916425,-0.11201172045,0.988330916425,-0.11201172045,-0.0115137310237,-0.101077436906
3300000000.0,-0.0122388132569,-0.104170725746,0.987601861672,-0.115449020377,0.987601861672,-0.115449020377,-0.0122388132569,-0.104170725746
3400000000.0,-0.0129853606148,-0.107257679371,0.986851221821,-0.118880157624,0.986851221821,-0.118880157624,-0.0129853606148,-0.107257679371
3500000000.0,-0.0137532964377,-0.110338087482,0.986079073264,-0.122304923874,0.986079073264,-0.122304923874,-0.0137532964377,-0.110338087482
3600000000.0,-0.0145425412194,-0.113411740402,0.985285495242,-0.125723111362,0.985285495242,-0.125723111362,-0.0145425412194,-0.113411740402
3700000000.0,-0.0153530126183,-0.116478429154,0.984470569834,-0.129134512966,0.984470569834,-0.129134512966,-0.0153530126183,-0.116478429154
3800000000.0,-0.0161846254704,-0.119537945543,0.983634381946,-0.132538922284,0.983634381946,-0.132538922284,-0.0161846254704,-0.119537945543
3900000000.0,-0.0170372918041,-0.122590082232,0.982777019291,-0.135936133717,0.982777019291,-0.135936133717,-0.0170372918041,-0.122590082232
4000000000.0,-0.017910920857,-0.125634632819,0.981898572376,-0.139325942544,0.981898572376,-0.139325942544,-0.017910920857,-0.125634632819
4100000000.0,-0.0188054190943,-0.128671391908,0.980999134484,-0.142708145,0.980999134484,-0.142708145,-0.0188054190943,-0.128671391908
4200000000.0,-0.0197206902289,-0.131700155182,0.980078801648,-0.146082538349,0.980078801648,-0.146082538349,-0.0197206902289,-0.131700155182
4300000000.0,-0.0206566352431,-0.134720719472,0.979137672635,-0.149448920957,0.979137672635,-0.149448920957,-0.0206566352431,-0.134720719472
4400000000.0,-0.0216131524124,-0.137732882828,0.978175848919,-0.152807092359,0.978175848919,-0.152807092359,-0.0216131524124,-0.137732882828
4500000000.0,-0.0225901373299,-0.140736444582,0.977193434657,-0.15615685333,0.977193434657,-0.15615685333,-0.0225901373299,-0.140736444582
4600000000.0,-0.0235874829329,-0.143731205418,0.976190536663,-0.159498005954,0.976190536663,-0.159498005954,-0.0235874829329,-0.143731205418
4700000000.0,-0.0246050795306,-0.146716967429,0.97516726438,-0.162830353684,0.97516726438,-0.162830353684,-0.0246050795306,-0.146716967429
4800000000.0,-0.0256428148334,-0.149693534183,0.974123729848,-0.16615370141,0.974123729848,-0.16615370141,-0.0256428148334,-0.149693534183
4900000000.0,-0.0267005739835,-0.152660710783,0.973060047678,-0.169467855516,0.973060047678,-0.169467855516,-0.0267005739835,-0.152660710783
5000000000.0,-0.0277782395862,-0.155618303923,0.971976335016,-0.172772623944,0.971976335016,-0.172772623944,-0.0277782395862,-0.155618303923
5100000000.0,-0.0288756917434,-0.158566121948,0.970872711513,-0.176067816253,0.970872711513,-0.176067816253,-0.0288756917434,-0.158566121948
5200000000.0,-0.0299928080876,-0.161503974909,0.969749299289,-0.179353243671,0.969749299289,-0.179353243671,-0.0299928080876,-0.161503974909
5300000000.0,-0.0311294638172,-0.164431674614,0.968606222897,-0.182628719155,0.968606222897,-0.182628719155,-0.0311294638172,-0.164431674614
5400000000.0,-0.0322855317329,-0.167349034684,0.96744360929,-0.18589405744,0.96744360929,-0.18589405744,-0.0322855317329,-0.167349034684
5500000000.0,-0.0334608822752,-0.170255870601,0.966261587777,-0.189149075098,0.966261587777,-0.189149075098,-0.0334608822752,-0.170255870601
5600000000.0,-0.0346553835629,-0.173151999758,0.965060289994,-0.19239359058,0.965060289994,-0.19239359058,-0.0346553835629,-0.173151999758
5700000000.0,-0.0358689014321,-0.17603724151,0.963839849853,-0.19562742427,0.963839849853,-0.19562742427,-0.0358689014321,-0.17603724151
5800000000.0,-0.037101299477,-0.178911417215,0.962600403514,-0.198850398534,0.962600403514,-0.198850398534,-0.037101299477,-0.178911417215
5900000000.0,-0.0383524390911,-0.181774350282,0.961342089332,-0.202062337759,0.961342089332,-0.202062337759,-0.0383524390911,-0.181774350282
6000000000.0,-0.0396221795086,-0.184625866214,0.960065047825,-0.205263068405,0.960065047825,-0.205263068405,-0.0396221795086,-0.184625866214
6100000000.0,-0.0409103778476,-0.187465792647,0.958769421624,-0.20845241904,0.958769421624,-0.20845241904,-0.0409103778476,-0.187465792647
6200000000.0,-0.0422168891539,-0.190293959395,0.957455355434,-0.211630220389,0.957455355434,-0.211630220389,-0.0422168891539,-0.190293959395
6300000000.0,-0.0435415664444,-0.193110198486,0.956122995985,-0.214796305367,0.956122995985,-0.214796305367,-0.0435415664444,-0.193110198486
6400000000.0,-0.0448842607526,-0.195914344199,0.954772491995,-0.217950509122,0.954772491995,-0.217950509122,-0.0448842607526,-0.195914344199
6500000000.0,-0.0462448211739,-0.1987062331,0.953403994116,-0.221092669067,0.953403994116,-0.221092669067,-0.0462448211739,-0.1987062331
6600000000.0,-0.0476230949117,-0.201485704078,0.952017654891,-0.224222624922,0.952017654891,-0.224222624922,-0.0476230949117,-0.201485704078
6700000000.0,-0.0490189273238,-0.204252598376,0.950613628712,-0.227340218738,0.950613628712,-0.227340218738,-0.0490189273238,-0.204252598376
6800000000.0,-0.0504321619697,-0.207006759623,0.949192071764,-0.230445294941,0.949192071764,-0.230445294941,-0.0504321619697,-0.207006759623
6900000000.0,-0.051862640658,-0.209748033867,0.947753141986,-0.233537700351,0.947753141986,-0.233537700351,-0.051862640658,-0.209748033867
7000000000.0,-0.0533102034944,-0.212476269598,0.946296999018,-0.23661728422,0.946296999018,-0.23661728422,-0.0533102034944,-0.212476269598
7100000000.0,-0.0547746889301,-0.215191317779,0.944823804154,-0.239683898256,0.944823804154,-0.239683898256,-0.0547746889301,-0.215191317779
7200000000.0,-0.0562559338104,-0.217893031874,0.943333720292,-0.24273739665,0.943333720292,-0.24273739665,-0.0562559338104,-0.217893031874
7300000000.0,-0.057753773424,-0.220581267867,0.941826911889,-0.245777636102,0.941826911889,-0.245777636102,-0.057753773424,-0.220581267867
7400000000.0,-0.0592680415517,-0.223255884288,0.940303544907,-0.248804475844,0.940303544907,-0.248804475844,-0.0592680415517,-0.223255884288
7500000000.0,-0.0607985705165,-0.225916742236,0.938763786766,-0.251817777661,0.938763786766,-0.251817777661,-0.0607985705165,-0.225916742236
7600000000.0,-0.0623451912329,-0.228563705397,0.937207806293,-0.254817405916,0.937207806293,-0.254817405916,-0.0623451912329,-0.228563705397
7700000000.0,-0.0639077332573,-0.231196640064,0.935635773675,-0.257803227563,0.935635773675,-0.257803227563,-0.0639077332573,-0.231196640064
7800000000.0,-0.0654860248375,-0.233815415156,0.934047860403,-0.260775112173,0.934047860403,-0.260775112173,-0.0654860248375,-0.233815415156
7900000000.0,-0.0670798929631,-0.236419902232,0.93244423923,-0.263732931944,0.93244423923,-0.263732931944,-0.0670798929631,-0.236419902232
8000000000.0,-0.0686891634157,-0.239009975506,0.930825084112,-0.26667656172,0.930825084112,-0.26667656172,-0.0686891634157,-0.239009975506
8100000000.0,-0.0703136608192,-0.241585511865,0.929190570166,-0.269605879005,0.929190570166,-0.269605879005,-0.0703136608192,-0.241585511865
8200000000.0,-0.0719532086902,-0.244146390877,0.927540873614,-0.272520763976,0.927540873614,-0.272520763976,-0.0719532086902,-0.244146390877
8300000000.0,-0.0736076294877,-0.246692494803,0.925876171733,-0.275421099493,0.925876171733,-0.275421099493,-0.0736076294877,-0.246692494803
8400000000.0,-0.0752767446641,-0.249223708609,0.924196642809,-0.278306771113,0.924196642809,-0.278306771113,-0.0752767446641,-0.249223708609
8500000000.0,-0.0769603747147,-0.251739919974,0.922502466084,-0.281177667095,0.922502466084,-0.281177667095,-0.0769603747147,-0.251739919974
8600000000.0,-0.0786583392281,-0.254241019296,0.920793821704,-0.284033678409,0.920793821704,-0.284033678409,-0.0786583392281,-0.254241019296
8700000000.0,-0.0803704569359,-0.256726899701,0.919070890674,-0.286874698747,0.919070890674,-0.286874698747,-0.0803704569359,-0.256726899701
8800000000.0,-0.0820965457625,-0.259197457046,0.917333854802,-0.289700624522,0.917333854802,-0.289700624522,-0.0820965457625,-0.259197457046
8900000000.0,-0.0838364228747,-0.261652589924,0.915582896657,-0.292511354876,0.915582896657,-0.292511354876,-0.0838364228747,-0.261652589924
9000000000.0,-0.0855899047311,-0.264092199668,0.913818199514,-0.295306791684,0.913818199514,-0.295306791684,-0.0855899047311,-0.264092199668
9100000000.0,-0.0873568071308,-0.26651619035,0.912039947304,-0.298086839555,0.912039947304,-0.298086839555,-0.0873568071308,-0.26651619035
9200000000.0,-0.0891369452629,-0.268924468785,0.910248324572,-0.300851405831,0.910248324572,-0.300851405831,-0.0891369452629,-0.268924468785
9300000000.0,-0.0909301337546,-0.271316944526,0.908443516421,-0.303600400591,0.908443516421,-0.303600400591,-0.0909301337546,-0.271316944526
9400000000.0,-0.0927361867195,-0.27369352987,0.906625708468,-0.306333736644,0.906625708468,-0.306333736644,-0.0927361867195,-0.27369352987
9500000000.0,-0.0945549178058,-0.276054139848,0.904795086794,-0.309051329535,0.904795086794,-0.309051329535,-0.0945549178058,-0.276054139848
9600000000.0,-0.0963861402435,-0.278398692224,0.902951837899,-0.311753097534,0.902951837899,-0.311753097534,-0.0963861402435,-0.278398692224
9700000000.0,-0.098229666892,-0.280727107493,0.901096148652,-0.314438961634,0.901096148652,-0.314438961634,-0.098229666892,-0.280727107493
9800000000.0,-0.100085310287,-0.283039308871,0.899228206244,-0.317108845549,0.899228206244,-0.317108845549,-0.100085310287,-0.283039308871
9900000000.0,-0.101952882685,-0.285335222292,0.897348198146,-0.319762675701,0.897348198146,-0.319762675701,-0.101952882685,-0.285335222292
10000000000.0,-0.103832196114,-0.2876147764,0.895456312056,-0.322400381222,0.895456312056,-0.322400381222,-0.103832196114,-0.2876147764
