freq (GHz),S11_real,S11_imag,S21_real,S21_imag,S12_real,S12_imag,S22_real,S22_imag
100000000.0,0.000309111110584,-0.00107560032489,0.999677997464,-0.00293960564447,0.999677997464,-0.00293960564447,0.000309111110584,-0.00107560032489
200000000.0,0.00029983273478,-0.00215123726355,0.999659259068,-0.00587928786492,0.999659259068,-0.00587928786492,0.00029983273478,-0.00215123726355
300000000.0,0.000283679782727,-0.00322690985477,0.999631266707,-0.00881907929329,0.999631266707,-0.00881907929329,0.000283679782727,-0.00322690985477
400000000.0,0.000260922541073,-0.00430260855003,0.999593746097,-0.0117589931669,0.999593746097,-0.0117589931669,0.000260922541073,-0.00430260855003
500000000.0,0.000231663642801,-0.00537831869072,0.99954659008,-0.014699033336,0.99954659008,-0.014699033336,0.000231663642801,-0.00537831869072
600000000.0,0.000195954290796,-0.00645402204269,0.999489742565,-0.0176391975162,0.999489742565,-0.0176391975162,0.000195954290796,-0.00645402204269
700000000.0,0.000153823803101,-0.00752969763377,0.999423169103,-0.0205794789186,0.999423169103,-0.0205794789186,0.000153823803101,-0.00752969763377
800000000.0,0.000105290406676,-0.00860532227689,0.999346846193,-0.0235198672222,0.999346846193,-0.0235198672222,0.000105290406675,-0.00860532227689
900000000.0,5.0366053987e-05,-0.00968087092698,0.999260756537,-0.0264603492138,0.999260756537,-0.0264603492138,5.03660539868e-05,-0.00968087092698
1000000000.0,-1.09411263022e-05,-0.0107563169396,0.999164886659,-0.0294009092402,0.999164886659,-0.0294009092402,-1.09411263023e-05,-0.0107563169396
1100000000.0,-7.8625459334e-05,-0.0118316322672,0.999059225587,-0.0323415295438,0.999059225587,-0.0323415295438,-7.86254593341e-05,-0.0118316322672
1200000000.0,-0.000152682901293,-0.0129067876134,0.998943764081,-0.035282190521,0.998943764081,-0.035282190521,-0.000152682901293,-0.0129067876134
1300000000.0,-0.000233110516385,-0.0139817525571,0.998818494156,-0.0382228709272,0.998818494156,-0.0382228709272,-0.000233110516385,-0.0139817525571
1400000000.0,-0.000319906128521,-0.0150564956559,0.998683408768,-0.0411635480436,0.998683408768,-0.0411635480436,-0.000319906128521,-0.0150564956559
1500000000.0,-0.000413068080101,-0.0161309845325,0.998538501615,-0.0441041978157,0.998538501615,-0.0441041978157,-0.000413068080102,-0.0161309845325
1600000000.0,-0.000512595059303,-0.017205185949,0.998383766989,-0.0470447949698,0.998383766989,-0.0470447949698,-0.000512595059303,-0.017205185949
1700000000.0,-0.000618485972737,-0.0182790658717,0.998219199687,-0.0499853131129,0.998219199687,-0.0499853131129,-0.000618485972737,-0.0182790658717
1800000000.0,-0.000730739849154,-0.0193525895271,0.998044794934,-0.0529257248196,0.998044794934,-0.0529257248196,-0.000730739849153,-0.0193525895271
1900000000.0,-0.000849355764939,-0.0204257214528,0.99786054834,-0.0558660017079,0.99786054834,-0.0558660017079,-0.000849355764939,-0.0204257214528
2000000000.0,-0.000974332785277,-0.0214984255422,0.997666455861,-0.058806114506,0.997666455861,-0.058806114506,-0.000974332785277,-0.0214984255422
2100000000.0,-0.00110566991686,-0.0225706650855,0.997462513776,-0.0617460331126,0.997462513776,-0.0617460331126,-0.00110566991686,-0.0225706650855
2200000000.0,-0.00124336606919,-0.023642402806,0.997248718667,-0.0646857266505,0.997248718667,-0.0646857266505,-0.00124336606919,-0.023642402806
2300000000.0,-0.00138742002257,-0.024713600895,0.997025067407,-0.0676251635153,0.997025067407,-0.0676251635153,-0.00138742002257,-0.024713600895
2400000000.0,-0.00153783040104,-0.0257842210422,0.996791557152,-0.07056431142,0.996791557152,-0.07056431142,-0.00153783040104,-0.0257842210422
2500000000.0,-0.00169459564954,-0.0268542244647,0.996548185332,-0.0735031374351,0.996548185332,-0.0735031374351,-0.00169459564954,-0.0268542244647
2600000000.0,-0.0018577140141,-0.0279235719342,0.996294949648,-0.0764416080264,0.996294949648,-0.0764416080264,-0.0018577140141,-0.0279235719342
2700000000.0,-0.00202718352473,-0.0289922238016,0.996031848072,-0.0793796890894,0.996031848072,-0.0793796890894,-0.00202718352473,-0.0289922238016
2800000000.0,-0.00220300198045,-0.0300601400206,0.995758878843,-0.082317345981,0.995758878843,-0.082317345981,-0.00220300198045,-0.0300601400206
2900000000.0,-0.00238516693599,-0.0311272801701,0.995476040468,-0.0852545435498,0.995476040468,-0.0852545435498,-0.00238516693599,-0.0311272801701
3000000000.0,-0.00257367569009,-0.0321936034745,0.995183331722,-0.0881912461637,0.995183331722,-0.0881912461637,-0.00257367569008,-0.0321936034745
3100000000.0,-0.00276852527491,-0.0332590688236,0.994880751651,-0.0911274177361,0.994880751651,-0.0911274177361,-0.00276852527491,-0.0332590688236
3200000000.0,-0.00296971244665,-0.0343236347915,0.994568299569,-0.0940630217504,0.994568299569,-0.0940630217504,-0.00296971244665,-0.0343236347915
3300000000.0,-0.003177233677,-0.0353872596541,0.994245975065,-0.0969980212831,0.994245975065,-0.0969980212831,-0.003177233677,-0.0353872596541
3400000000.0,-0.0033910851454,-0.0364499014061,0.993913778001,-0.0999323790263,0.993913778001,-0.0999323790263,-0.0033910851454,-0.0364499014061
3500000000.0,-0.00361126273201,-0.0375115177773,0.993571708516,-0.102866057307,0.993571708516,-0.102866057307,-0.00361126273201,-0.0375115177773
3600000000.0,-0.00383776201134,-0.0385720662478,0.993219767026,-0.10579901811,0.993219767026,-0.10579901811,-0.00383776201134,-0.0385720662478
3700000000.0,-0.00407057824635,-0.039631504063,0.992857954229,-0.108731223091,0.992857954229,-0.108731223091,-0.00407057824635,-0.039631504063
3800000000.0,-0.00430970638312,-0.0406897882479,0.992486271106,-0.1116626336,0.992486271106,-0.1116626336,-0.00430970638312,-0.0406897882479
3900000000.0,-0.00455514104593,-0.0417468756206,0.992104718921,-0.114593210697,0.992104718921,-0.114593210697,-0.00455514104593,-0.0417468756206
4000000000.0,-0.00480687653273,-0.0428027228057,0.991713299225,-0.117522915166,0.991713299225,-0.117522915166,-0.00480687653273,-0.0428027228057
4100000000.0,-0.00506490681099,-0.0438572862466,0.99131201386,-0.120451707533,0.99131201386,-0.120451707533,-0.00506490681099,-0.0438572862466
4200000000.0,-0.00532922551393,-0.0449105222183,0.990900864956,-0.123379548078,0.990900864956,-0.123379548078,-0.00532922551393,-0.0449105222183
4300000000.0,-0.00559982593698,-0.0459623868388,0.990479854936,-0.126306396855,0.990479854936,-0.126306396855,-0.00559982593698,-0.0459623868388
4400000000.0,-0.00587670103455,-0.0470128360808,0.990048986517,-0.129232213701,0.990048986517,-0.129232213701,-0.00587670103455,-0.0470128360808
4500000000.0,-0.00615984341714,-0.0480618257827,0.989608262713,-0.132156958248,0.989608262713,-0.132156958248,-0.00615984341714,-0.0480618257827
4600000000.0,-0.00644924534858,-0.0491093116595,0.989157686835,-0.135080589942,0.989157686835,-0.135080589942,-0.00644924534858,-0.0491093116595
4700000000.0,-0.00674489874358,-0.0501552493129,0.988697262491,-0.13800306805,0.988697262491,-0.13800306805,-0.00674489874358,-0.0501552493129
4800000000.0,-0.00704679516549,-0.0511995942419,0.988226993591,-0.140924351675,0.988226993591,-0.140924351675,-0.00704679516549,-0.0511995942419
4900000000.0,-0.0073549258242,-0.0522423018524,0.987746884345,-0.143844399764,0.987746884345,-0.143844399764,-0.0073549258242,-0.0522423018524
5000000000.0,-0.00766928157432,-0.0532833274665,0.987256939267,-0.146763171124,0.987256939267,-0.146763171124,-0.00766928157431,-0.0532833274665
5100000000.0,-0.00798985291347,-0.0543226263323,0.986757163172,-0.149680624429,0.986757163172,-0.149680624429,-0.00798985291347,-0.0543226263323
5200000000.0,-0.00831662998082,-0.0553601536329,0.986247561181,-0.152596718232,0.986247561181,-0.152596718232,-0.00831662998082,-0.0553601536329
5300000000.0,-0.00864960255566,-0.056395864495,0.98572813872,-0.155511410974,0.98572813872,-0.155511410974,-0.00864960255566,-0.056395864495
5400000000.0,-0.00898876005629,-0.0574297139974,0.985198901522,-0.158424660997,0.985198901522,-0.158424660997,-0.00898876005629,-0.0574297139974
5500000000.0,-0.00933409153892,-0.0584616571801,0.984659855623,-0.161336426548,0.984659855623,-0.161336426548,-0.00933409153892,-0.0584616571801
5600000000.0,-0.00968558569679,-0.0594916490516,0.984111007368,-0.164246665795,0.984111007368,-0.164246665795,-0.00968558569679,-0.0594916490516
5700000000.0,-0.0100432308594,-0.0605196445978,0.983552363411,-0.167155336829,0.983552363411,-0.167155336829,-0.0100432308594,-0.0605196445978
5800000000.0,-0.0104070149919,-0.0615455987889,0.98298393071,-0.17006239768,0.98298393071,-0.17006239768,-0.0104070149919,-0.0615455987889
5900000000.0,-0.0107769256944,-0.0625694665878,0.982405716535,-0.172967806319,0.982405716535,-0.172967806319,-0.0107769256944,-0.0625694665878
6000000000.0,-0.0111529502018,-0.0635912029575,0.98181772846,-0.175871520671,0.98181772846,-0.175871520671,-0.0111529502018,-0.0635912029575
6100000000.0,-0.0115350753835,-0.0646107628678,0.98121997437,-0.178773498619,0.98121997437,-0.178773498619,-0.0115350753835,-0.0646107628678
6200000000.0,-0.0119232877431,-0.0656281013033,0.980612462456,-0.181673698017,0.980612462456,-0.181673698017,-0.0119232877431,-0.0656281013033
6300000000.0,-0.0123175734181,-0.0666431732697,0.979995201217,-0.184572076694,0.979995201217,-0.184572076694,-0.0123175734181,-0.0666431732697
6400000000.0,-0.0127179181806,-0.0676559338011,0.979368199462,-0.18746859246,0.979368199462,-0.18746859246,-0.0127179181806,-0.0676559338011
6500000000.0,-0.0131243074368,-0.0686663379666,0.978731466305,-0.190363203118,0.978731466305,-0.190363203118,-0.0131243074368,-0.0686663379666
6600000000.0,-0.0135367262275,-0.0696743408768,0.978085011166,-0.193255866468,0.978085011166,-0.193255866468,-0.0135367262275,-0.0696743408768
6700000000.0,-0.0139551592283,-0.0706798976904,0.977428843775,-0.196146540314,0.977428843775,-0.196146540314,-0.0139551592283,-0.0706798976904
6800000000.0,-0.0143795907501,-0.0716829636203,0.976762974163,-0.199035182474,0.976762974163,-0.199035182474,-0.0143795907501,-0.0716829636203
6900000000.0,-0.0148100047396,-0.0726834939403,0.976087412672,-0.20192175078,0.976087412672,-0.20192175078,-0.0148100047396,-0.0726834939403
7000000000.0,-0.0152463847799,-0.0736814439904,0.975402169943,-0.204806203092,0.975402169943,-0.204806203092,-0.0152463847799,-0.0736814439904
7100000000.0,-0.015688714091,-0.0746767691837,0.974707256925,-0.207688497299,0.974707256925,-0.207688497299,-0.015688714091,-0.0746767691837
7200000000.0,-0.0161369755306,-0.0756694250114,0.974002684867,-0.210568591328,0.974002684867,-0.210568591328,-0.0161369755306,-0.0756694250114
7300000000.0,-0.016591151595,-0.0766593670492,0.973288465322,-0.213446443149,0.973288465322,-0.213446443149,-0.016591151595,-0.0766593670492
7400000000.0,-0.0170512244199,-0.0776465509625,0.972564610144,-0.21632201078,0.972564610144,-0.21632201078,-0.0170512244199,-0.0776465509625
7500000000.0,-0.0175171757813,-0.0786309325123,0.971831131486,-0.219195252294,0.971831131486,-0.219195252294,-0.0175171757813,-0.0786309325123
7600000000.0,-0.0179889870966,-0.0796124675605,0.9710880418,-0.222066125827,0.9710880418,-0.222066125827,-0.0179889870966,-0.0796124675605
7700000000.0,-0.0184666394257,-0.0805911120751,0.970335353837,-0.224934589577,0.970335353837,-0.224934589577,-0.0184666394257,-0.0805911120751
7800000000.0,-0.0189501134723,-0.0815668221357,0.969573080644,-0.227800601816,0.969573080644,-0.227800601816,-0.0189501134723,-0.0815668221357
7900000000.0,-0.0194393895846,-0.0825395539387,0.968801235562,-0.230664120892,0.968801235562,-0.230664120892,-0.0194393895846,-0.0825395539387
8000000000.0,-0.0199344477573,-0.0835092638019,0.968019832227,-0.233525105234,0.968019832227,-0.233525105234,-0.0199344477573,-0.0835092638019
8100000000.0,-0.0204352676323,-0.0844759081703,0.967228884569,-0.23638351336,0.967228884569,-0.23638351336,-0.0204352676323,-0.0844759081703
8200000000.0,-0.0209418285005,-0.0854394436201,0.966428406806,-0.239239303878,0.966428406806,-0.239239303878,-0.0209418285005,-0.0854394436201
8300000000.0,-0.0214541093031,-0.0863998268642,0.965618413448,-0.242092435494,0.965618413448,-0.242092435494,-0.0214541093031,-0.0863998268642
8400000000.0,-0.0219720886332,-0.0873570147567,0.964798919293,-0.244942867013,0.964798919293,-0.244942867013,-0.0219720886332,-0.0873570147567
8500000000.0,-0.0224957447373,-0.0883109642976,0.963969939423,-0.24779055735,0.963969939423,-0.24779055735,-0.0224957447373,-0.0883109642976
8600000000.0,-0.0230250555169,-0.0892616326372,0.963131489208,-0.250635465528,0.963131489208,-0.250635465528,-0.0230250555169,-0.0892616326372
8700000000.0,-0.0235599985302,-0.090208977081,0.962283584299,-0.253477550686,0.962283584299,-0.253477550686,-0.0235599985302,-0.090208977081
8800000000.0,-0.0241005509938,-0.0911529550937,0.961426240628,-0.256316772083,0.961426240628,-0.256316772083,-0.0241005509938,-0.0911529550937
8900000000.0,-0.0246466897848,-0.0920935243037,0.960559474409,-0.259153089101,0.960559474409,-0.259153089101,-0.0246466897848,-0.0920935243037
9000000000.0,-0.025198391442,-0.0930306425077,0.95968330213,-0.261986461251,0.95968330213,-0.261986461251,-0.025198391442,-0.0930306425077
9100000000.0,-0.0257556321681,-0.0939642676745,0.958797740558,-0.264816848176,0.958797740558,-0.264816848176,-0.0257556321681,-0.0939642676745
9200000000.0,-0.0263183878319,-0.0948943579492,0.957902806732,-0.267644209654,0.957902806732,-0.267644209654,-0.0263183878319,-0.0948943579492
9300000000.0,-0.0268866339696,-0.0958208716578,0.956998517963,-0.270468505604,0.956998517963,-0.270468505604,-0.0268866339696,-0.0958208716578
9400000000.0,-0.0274603457875,-0.0967437673102,0.956084891833,-0.273289696091,0.956084891833,-0.273289696091,-0.0274603457875,-0.0967437673102
9500000000.0,-0.0280394981635,-0.0976630036053,0.955161946191,-0.276107741325,0.955161946191,-0.276107741325,-0.0280394981635,-0.0976630036053
9600000000.0,-0.0286240656495,-0.098578539434,0.954229699151,-0.278922601668,0.954229699151,-0.278922601668,-0.0286240656495,-0.098578539434
9700000000.0,-0.0292140224734,-0.0994903338836,0.953288169092,-0.281734237638,0.953288169092,-0.281734237638,-0.0292140224734,-0.0994903338836
9800000000.0,-0.0298093425412,-0.100398346241,0.952337374653,-0.284542609912,0.952337374653,-0.284542609912,-0.0298093425412,-0.100398346241
9900000000.0,-0.0304099994394,-0.101302535997,0.951377334732,-0.287347679329,0.951377334732,-0.287347679329,-0.0304099994394,-0.101302535997
10000000000.0,-0.0310159664372,-0.10220286285,0.950408068487,-0.290149406892,0.950408068487,-0.290149406892,-0.0310159664372,-0.10220286285
