freq (GHz),S11_real,S11_imag,S21_real,S21_imag,S12_real,S12_imag,S22_real,S22_imag
100000000.0,0.000194604858623,-0.00564905787429,0.999702860817,-0.00766177149261,0.999702860817,-0.00766177149261,0.000194604858623,-0.00564905787429
200000000.0,5.99423470986e-05,-0.0112968518158,0.999558799729,-0.0153224118423,0.999558799729,-0.0153224118423,5.99423470986e-05,-0.0112968518158
300000000.0,-0.000161682528395,-0.0169419859122,0.999324569359,-0.0229806124769,0.999324569359,-0.0229806124769,-0.000161682528395,-0.0169419859122
400000000.0,-0.000469999215831,-0.0225829922246,0.999000015597,-0.0306349740255,0.999000015597,-0.0306349740255,-0.000469999215831,-0.0225829922246
500000000.0,-0.000864834920123,-0.0282183657809,0.998585146435,-0.0382840516151,0.998585146435,-0.0382840516151,-0.000864834920123,-0.0282183657809
600000000.0,-0.00134602266104,-0.0338465779614,0.998080043338,-0.0459263713931,0.998080043338,-0.0459263713931,-0.00134602266104,-0.0338465779614
700000000.0,-0.00191337722397,-0.0394660839963,0.997484839478,-0.0535604395565,0.997484839478,-0.0535604395565,-0.00191337722397,-0.0394660839963
800000000.0,-0.00256668598515,-0.0450753279883,0.996799712227,-0.0611847482694,0.996799712227,-0.0611847482694,-0.00256668598515,-0.0450753279883
900000000.0,-0.00330570458935,-0.0506727466733,0.996024880063,-0.0687977800057,0.996024880063,-0.0687977800057,-0.00330570458935,-0.0506727466733
1000000000.0,-0.00413015462446,-0.0562567724567,0.995160601156,-0.076398010989,0.995160601156,-0.076398010989,-0.00413015462446,-0.0562567724567
1100000000.0,-0.00503972226458,-0.0618258359968,0.994207172645,-0.0839839140723,0.994207172645,-0.0839839140723,-0.00503972226458,-0.0618258359968
1200000000.0,-0.00603405744855,-0.0673783684868,0.993164930228,-0.0915539612448,0.993164930228,-0.0915539612448,-0.00603405744855,-0.0673783684868
1300000000.0,-0.00711277338826,-0.0729128037247,0.992034247887,-0.0991066258781,0.992034247887,-0.0991066258781,-0.00711277338826,-0.0729128037247
1400000000.0,-0.00827544630065,-0.0784275800275,0.990815537646,-0.106640384782,0.990815537646,-0.106640384782,-0.00827544630065,-0.0784275800275
1500000000.0,-0.00952161530356,-0.0839211420254,0.989509249335,-0.114153720115,0.989509249335,-0.114153720115,-0.00952161530356,-0.0839211420254
1600000000.0,-0.01085078244,-0.089391942361,0.98811587033,-0.121645121177,0.98811587033,-0.121645121177,-0.01085078244,-0.089391942361
1700000000.0,-0.0122624128081,-0.094838443309,0.986635925248,-0.129113086117,0.986635925248,-0.129113086117,-0.0122624128081,-0.094838443309
1800000000.0,-0.0137559347829,-0.100259118328,0.985069975604,-0.136556123547,0.985069975604,-0.136556123547,-0.0137559347829,-0.100259118328
1900000000.0,-0.0153307403172,-0.10565245355,0.983418619417,-0.143972754098,0.983418619417,-0.143972754098,-0.0153307403172,-0.10565245355
2000000000.0,-0.0169861853161,-0.111016949223,0.981682490761,-0.15136151191,0.981682490761,-0.15136151191,-0.0169861853161,-0.111016949223
2100000000.0,-0.0187215900779,-0.11635112109,0.979862259277,-0.158720946059,0.979862259277,-0.158720946059,-0.0187215900779,-0.11635112109
2200000000.0,-0.0205362397969,-0.12165350173,0.977958629622,-0.166049621944,0.977958629622,-0.166049621944,-0.0205362397969,-0.12165350173
2300000000.0,-0.0224293851237,-0.126922641847,0.97597234088,-0.173346122604,0.97597234088,-0.173346122604,-0.0224293851237,-0.126922641847
2400000000.0,-0.0244002427798,-0.132157111516,0.973904165919,-0.180609050002,0.973904165919,-0.180609050002,-0.0244002427798,-0.132157111516
2500000000.0,-0.0264479962231,-0.137355501378,0.971754910704,-0.18783702625,0.971754910704,-0.18783702625,-0.0264479962231,-0.137355501378
2600000000.0,-0.0285717963611,-0.142516423795,0.969525413568,-0.19502869479,0.969525413568,-0.19502869479,-0.0285717963611,-0.142516423795
2700000000.0,-0.0307707623095,-0.14763851396,0.967216544439,-0.202182721523,0.967216544439,-0.202182721523,-0.0307707623095,-0.14763851396
2800000000.0,-0.0330439821932,-0.152720430955,0.964829204028,-0.2092977959,0.964829204028,-0.2092977959,-0.0330439821932,-0.152720430955
2900000000.0,-0.0353905139865,-0.157760858767,0.962364322976,-0.21637263195,0.962364322976,-0.21637263195,-0.0353905139865,-0.157760858767
3000000000.0,-0.037809386391,-0.162758507262,0.959822860972,-0.223405969274,0.959822860972,-0.223405969274,-0.037809386391,-0.162758507262
3100000000.0,-0.040299599748,-0.167712113101,0.957205805834,-0.230396573984,0.957205805834,-0.230396573984,-0.040299599748,-0.167712113101
3200000000.0,-0.0428601269833,-0.172620440621,0.954514172555,-0.237343239592,0.954514172555,-0.237343239592,-0.0428601269833,-0.172620440621
3300000000.0,-0.0454899145806,-0.177482282658,0.951749002325,-0.244244787855,0.951749002325,-0.244244787855,-0.0454899145806,-0.177482282658
3400000000.0,-0.0481878835837,-0.182296461328,0.948911361527,-0.251100069565,0.948911361527,-0.251100069565,-0.0481878835837,-0.182296461328
3500000000.0,-0.0509529306222,-0.18706182876,0.946002340708,-0.257907965297,0.946002340708,-0.257907965297,-0.0509529306222,-0.18706182876
3600000000.0,-0.0537839289596,-0.191777267776,0.943023053523,-0.2646673861,0.943023053523,-0.2646673861,-0.0537839289596,-0.191777267776
3700000000.0,-0.0566797295623,-0.196441692522,0.939974635667,-0.271377274143,0.939974635667,-0.271377274143,-0.0566797295623,-0.196441692522
3800000000.0,-0.0596391621849,-0.201054049059,0.936858243786,-0.278036603311,0.936858243786,-0.278036603311,-0.0596391621849,-0.201054049059
3900000000.0,-0.0626610364712,-0.205613315892,0.933675054372,-0.284644379749,0.933675054372,-0.284644379749,-0.0626610364712,-0.205613315892
4000000000.0,-0.0657441430682,-0.21011850446,0.93042626265,-0.291199642356,0.93042626265,-0.291199642356,-0.0657441430682,-0.21011850446
4100000000.0,-0.0688872547502,-0.214568659576,0.927113081447,-0.297701463238,0.927113081447,-0.297701463238,-0.0688872547502,-0.214568659576
4200000000.0,-0.0720891275516,-0.218962859809,0.923736740064,-0.304148948099,0.923736740064,-0.304148948099,-0.0720891275516,-0.218962859809
4300000000.0,-0.075348501905,-0.223300217831,0.920298483129,-0.310541236592,0.920298483129,-0.310541236592,-0.075348501905,-0.223300217831
4400000000.0,-0.0786641037841,-0.227579880712,0.916799569455,-0.31687750262,0.916799569455,-0.31687750262,-0.0786641037841,-0.227579880712
4500000000.0,-0.0820346458474,-0.231801030157,0.913241270896,-0.323156954592,0.913241270896,-0.323156954592,-0.0820346458474,-0.231801030157
4600000000.0,-0.0854588285821,-0.235962882716,0.909624871202,-0.32937883562,0.909624871202,-0.32937883562,-0.0854588285821,-0.235962882716
4700000000.0,-0.0889353414453,-0.24006468993,0.905951664871,-0.335542423688,0.905951664871,-0.335542423688,-0.0889353414453,-0.24006468993
4800000000.0,-0.0924628640009,-0.244105738439,0.902222956017,-0.341647031761,0.902222956017,-0.341647031761,-0.0924628640009,-0.244105738439
4900000000.0,-0.0960400670501,-0.24808535005,0.898440057233,-0.347692007851,0.898440057233,-0.347692007851,-0.0960400670501,-0.24808535005
5000000000.0,-0.099665613754,-0.252002881752,0.894604288469,-0.353676735049,0.894604288469,-0.353676735049,-0.099665613754,-0.252002881752
5100000000.0,-0.103338160746,-0.255857725694,0.890716975918,-0.3596006315,0.890716975918,-0.3596006315,-0.103338160746,-0.255857725694
5200000000.0,-0.107056359233,-0.259649309123,0.886779450913,-0.365463150348,0.886779450913,-0.365463150348,-0.107056359233,-0.259649309123
5300000000.0,-0.110818856081,-0.263377094273,0.882793048838,-0.371263779631,0.882793048838,-0.371263779631,-0.110818856081,-0.263377094273
5400000000.0,-0.114624294894,-0.267040578226,0.878759108053,-0.377002042143,0.878759108053,-0.377002042143,-0.114624294894,-0.267040578226
5500000000.0,-0.118471317061,-0.270639292726,0.874678968838,-0.382677495254,0.874678968838,-0.382677495254,-0.118471317061,-0.270639292726
5600000000.0,-0.122358562804,-0.274172803959,0.870553972347,-0.388289730695,0.870553972347,-0.388289730695,-0.122358562804,-0.274172803959
5700000000.0,-0.126284672193,-0.277640712296,0.866385459595,-0.393838374302,0.866385459595,-0.393838374302,-0.126284672193,-0.277640712296
5800000000.0,-0.130248286147,-0.281042652006,0.862174770448,-0.399323085735,0.862174770448,-0.399323085735,-0.130248286147,-0.281042652006
5900000000.0,-0.13424804741,-0.28437829093,0.857923242648,-0.40474355815,0.857923242648,-0.40474355815,-0.13424804741,-0.28437829093
6000000000.0,-0.138282601512,-0.287647330127,0.853632210854,-0.410099517856,0.853632210854,-0.410099517856,-0.138282601512,-0.287647330127
6100000000.0,-0.142350597696,-0.290849503486,0.84930300571,-0.415390723925,0.84930300571,-0.415390723925,-0.142350597696,-0.290849503486
6200000000.0,-0.146450689829,-0.293984577318,0.844936952933,-0.420616967784,0.844936952933,-0.420616967784,-0.146450689829,-0.293984577318
6300000000.0,-0.150581537282,-0.297052349905,0.840535372426,-0.425778072775,0.840535372426,-0.425778072775,-0.150581537282,-0.297052349905
6400000000.0,-0.154741805793,-0.300052651042,0.836099577426,-0.43087389369,0.836099577426,-0.43087389369,-0.154741805793,-0.300052651042
6500000000.0,-0.158930168287,-0.302985341538,0.831630873667,-0.435904316281,0.831630873667,-0.435904316281,-0.158930168287,-0.302985341538
6600000000.0,-0.163145305689,-0.305850312703,0.827130558576,-0.440869256747,0.827130558576,-0.440869256747,-0.163145305689,-0.305850312703
6700000000.0,-0.167385907692,-0.308647485813,0.822599920498,-0.4457686612,0.822599920498,-0.4457686612,-0.167385907692,-0.308647485813
6800000000.0,-0.171650673511,-0.31137681155,0.818040237942,-0.450602505107,0.818040237942,-0.450602505107,-0.171650673511,-0.31137681155
6900000000.0,-0.175938312592,-0.314038269427,0.813452778867,-0.455370792721,0.813452778867,-0.455370792721,-0.175938312592,-0.314038269427
7000000000.0,-0.180247545312,-0.316631867198,0.808838799987,-0.460073556486,0.808838799987,-0.460073556486,-0.180247545312,-0.316631867198
7100000000.0,-0.184577103632,-0.319157640247,0.804199546105,-0.464710856431,0.804199546105,-0.464710856431,-0.184577103632,-0.319157640247
7200000000.0,-0.188925731732,-0.321615650963,0.799536249488,-0.469282779549,0.799536249488,-0.469282779549,-0.188925731732,-0.321615650963
7300000000.0,-0.193292186611,-0.324005988108,0.794850129254,-0.473789439163,0.794850129254,-0.473789439163,-0.193292186611,-0.324005988108
7400000000.0,-0.197675238663,-0.326328766169,0.790142390802,-0.478230974276,0.790142390802,-0.478230974276,-0.197675238663,-0.326328766169
7500000000.0,-0.202073672217,-0.328584124698,0.785414225265,-0.482607548919,0.785414225265,-0.482607548919,-0.202073672217,-0.328584124698
7600000000.0,-0.206486286052,-0.330772227643,0.780666808995,-0.486919351484,0.780666808995,-0.486919351484,-0.206486286052,-0.330772227643
7700000000.0,-0.210911893884,-0.332893262681,0.775901303073,-0.491166594047,0.775901303073,-0.491166594047,-0.210911893884,-0.332893262681
7800000000.0,-0.215349324821,-0.334947440529,0.771118852851,-0.495349511692,0.771118852851,-0.495349511692,-0.215349324821,-0.334947440529
7900000000.0,-0.21979742379,-0.336934994263,0.766320587524,-0.499468361824,0.766320587524,-0.499468361824,-0.21979742379,-0.336934994263
8000000000.0,-0.224255051938,-0.338856178623,0.761507619727,-0.503523423478,0.761507619727,-0.503523423478,-0.224255051938,-0.338856178623
8100000000.0,-0.228721087001,-0.340711269324,0.756681045161,-0.50751499663,0.756681045161,-0.50751499663,-0.228721087001,-0.340711269324
8200000000.0,-0.23319442365,-0.342500562361,0.751841942246,-0.511443401499,0.751841942246,-0.511443401499,-0.23319442365,-0.342500562361
8300000000.0,-0.237673973808,-0.34422437331,0.746991371803,-0.515308977852,0.746991371803,-0.515308977852,-0.237673973808,-0.34422437331
8400000000.0,-0.242158666936,-0.345883036633,0.742130376764,-0.519112084312,0.742130376764,-0.519112084312,-0.242158666936,-0.345883036633
8500000000.0,-0.246647450302,-0.347476904987,0.737259981899,-0.522853097661,0.737259981899,-0.522853097661,-0.246647450302,-0.347476904987
8600000000.0,-0.251139289215,-0.349006348529,0.732381193584,-0.52653241215,0.732381193584,-0.52653241215,-0.251139289215,-0.349006348529
8700000000.0,-0.255633167238,-0.350471754228,0.727494999579,-0.53015043881,0.727494999579,-0.53015043881,-0.255633167238,-0.350471754228
8800000000.0,-0.260128086378,-0.351873525181,0.722602368841,-0.533707604767,0.722602368841,-0.533707604767,-0.260128086378,-0.351873525181
8900000000.0,-0.264623067249,-0.353212079931,0.717704251354,-0.537204352561,0.717704251354,-0.537204352561,-0.264623067249,-0.353212079931
9000000000.0,-0.269117149213,-0.354487851794,0.71280157799,-0.540641139474,0.71280157799,-0.540641139474,-0.269117149213,-0.354487851794
9100000000.0,-0.273609390499,-0.35570128819,0.707895260383,-0.54401843686,0.707895260383,-0.54401843686,-0.273609390499,-0.35570128819
9200000000.0,-0.278098868296,-0.356852849984,0.702986190834,-0.547336729484,0.702986190834,-0.547336729484,-0.278098868296,-0.356852849984
9300000000.0,-0.28258467883,-0.357943010829,0.698075242233,-0.550596514868,0.698075242233,-0.550596514868,-0.28258467883,-0.357943010829
9400000000.0,-0.287065937417,-0.358972256521,0.693163268,-0.553798302647,0.693163268,-0.553798302647,-0.287065937417,-0.358972256521
9500000000.0,-0.291541778499,-0.359941084366,0.688251102053,-0.556942613929,0.688251102053,-0.556942613929,-0.291541778499,-0.359941084366
9600000000.0,-0.296011355653,-0.36085000255,0.683339558784,-0.56002998067,0.683339558784,-0.56002998067,-0.296011355653,-0.36085000255
9700000000.0,-0.300473841591,-0.36169952952,0.678429433069,-0.563060945057,0.678429433069,-0.563060945057,-0.300473841591,-0.36169952952
9800000000.0,-0.304928428137,-0.362490193383,0.673521500278,-0.566036058899,0.673521500278,-0.566036058899,-0.304928428137,-0.362490193383
9900000000.0,-0.309374326186,-0.363222531303,0.66861651632,-0.568955883028,0.66861651632,-0.568955883028,-0.309374326186,-0.363222531303
10000000000.0,-0.313810765649,-0.363897088918,0.66371521769,-0.571820986719,0.66371521769,-0.571820986719,-0.313810765649,-0.363897088918
