freq (GHz),S11_real,S11_imag,S21_real,S21_imag,S12_real,S12_imag,S22_real,S22_imag
100000000.0,0.0146917277119,0.00250863285068,0.985305006938,-0.00389421448537,0.985305006938,-0.00389421448537,0.0146917277119,0.00250863285068
200000000.0,0.0148168074207,0.00501584117501,0.985175732289,-0.00778702157985,0.985175732289,-0.00778702157985,0.0148168074207,0.00501584117501
300000000.0,0.0149359881683,0.00752194408307,0.985050426733,-0.0116787521575,0.985050426733,-0.0116787521575,0.0149359881683,0.00752194408307
400000000.0,0.0150618657168,0.0100269315365,0.984916494205,-0.015569405763,0.984916494205,-0.015569405763,0.0150618657168,0.0100269315365
500000000.0,0.0151992895029,0.012530716988,0.984769084924,-0.019458904329,0.984769084924,-0.019458904329,0.0151992895029,0.012530716988
600000000.0,0.0153507285175,0.0150331801033,0.984605729513,-0.0233471352768,0.984605729513,-0.0233471352768,0.0153507285175,0.0150331801033
700000000.0,0.0155176359428,0.0175341821274,0.984424974361,-0.0272339670763,0.984424974361,-0.0272339670763,0.0155176359428,0.0175341821274
800000000.0,0.0157009473794,0.0200335730277,0.984225883398,-0.0311192565051,0.984225883398,-0.0311192565051,0.0157009473794,0.0200335730277
900000000.0,0.0159013027528,0.0225311953436,0.984007816189,-0.0350028525743,0.984007816189,-0.0350028525743,0.0159013027528,0.0225311953436
1000000000.0,0.0161191588272,0.0250268864766,0.983770315416,-0.0388845988727,0.983770315416,-0.0388845988727,0.0161191588272,0.0250268864766
1100000000.0,0.0163548517681,0.0275204801553,0.983513044326,-0.0427643350713,0.983513044326,-0.0427643350713,0.0163548517681,0.0275204801553
1200000000.0,0.0166086344332,0.030011807425,0.983235749429,-0.046641897944,0.983235749429,-0.046641897944,0.0166086344332,0.030011807425
1300000000.0,0.0168806998407,0.0325006973474,0.98293823704,-0.0505171220904,0.98293823704,-0.0505171220904,0.0168806998407,0.0325006973474
1400000000.0,0.0171711966005,0.0349869775135,0.982620357845,-0.0543898404685,0.982620357845,-0.0543898404685,0.0171711966005,0.0349869775135
1500000000.0,0.0174802394333,0.0374704744313,0.98228199638,-0.0582598847988,0.98228199638,-0.0582598847988,0.0174802394333,0.0374704744313
1600000000.0,0.0178079165631,0.0399510138279,0.981923063643,-0.0621270858782,0.981923063643,-0.0621270858782,0.0178079165631,0.0399510138279
1700000000.0,0.0181542950466,0.0424284208889,0.981543491763,-0.0659912738324,0.981543491763,-0.0659912738324,0.0181542950466,0.0424284208889
1800000000.0,0.0185194247045,0.044902520454,0.981143230071,-0.0698522783199,0.981143230071,-0.0698522783199,0.0185194247045,0.044902520454
1900000000.0,0.0189033410764,0.0473731371787,0.980722242142,-0.0737099287024,0.980722242142,-0.0737099287024,0.0189033410764,0.0473731371787
2000000000.0,0.0193060676821,0.0498400956706,0.980280503537,-0.0775640541883,0.980280503537,-0.0775640541883,0.0193060676821,0.0498400956706
2100000000.0,0.0197276177781,0.0523032206061,0.97981800005,-0.0814144839564,0.97981800005,-0.0814144839564,0.0197276177781,0.0523032206061
2200000000.0,0.020167995741,0.0547623368324,0.979334726316,-0.0852610472625,0.979334726316,-0.0852610472625,0.020167995741,0.0547623368324
2300000000.0,0.020627198172,0.0572172694563,0.978830684717,-0.0891035735341,0.978830684717,-0.0891035735341,0.020627198172,0.0572172694563
2400000000.0,0.0211052147868,0.0596678439239,0.978305884484,-0.0929418924544,0.978305884484,-0.0929418924544,0.0211052147868,0.0596678439239
2500000000.0,0.0216020291421,0.0621138860922,0.977760340978,-0.0967758340382,0.977760340978,-0.0967758340382,0.0216020291421,0.0621138860922
2600000000.0,0.0221176192336,0.0645552222942,0.977194075087,-0.1006052287,0.977194075087,-0.1006052287,0.0221176192336,0.0645552222942
2700000000.0,0.0226519579934,0.0669916793982,0.976607112732,-0.104429907319,0.976607112732,-0.104429907319,0.0226519579934,0.0669916793982
2800000000.0,0.0232050137062,0.0694230848632,0.97599948445,-0.108249701292,0.97599948445,-0.108249701292,0.0232050137062,0.0694230848632
2900000000.0,0.0237767503618,0.0718492667895,0.975371225041,-0.112064442596,0.975371225041,-0.112064442596,0.0237767503618,0.0718492667895
3000000000.0,0.024367127955,0.0742700539669,0.974722373269,-0.11587396383,0.974722373269,-0.11587396383,0.024367127955,0.0742700539669
3100000000.0,0.024976102743,0.0766852759195,0.974052971608,-0.119678098267,0.974052971608,-0.119678098267,0.024976102743,0.0766852759195
3200000000.0,0.0256036274679,0.0790947629482,0.973363066014,-0.123476679898,0.973363066014,-0.123476679898,0.0256036274679,0.0790947629482
3300000000.0,0.0262496515504,0.0814983461711,0.972652705735,-0.127269543475,0.972652705735,-0.127269543475,0.0262496515504,0.0814983461711
3400000000.0,0.0269141212595,0.0838958575616,0.971921943143,-0.131056524548,0.971921943143,-0.131056524548,0.0269141212595,0.0838958575616
3500000000.0,0.0275969798624,0.0862871299853,0.971170833579,-0.134837459508,0.971170833579,-0.134837459508,0.0275969798624,0.0862871299853
3600000000.0,0.0282981677571,0.0886719972351,0.970399435227,-0.138612185622,0.970399435227,-0.138612185622,0.0282981677571,0.0886719972351
3700000000.0,0.0290176225913,0.0910502940645,0.96960780899,-0.142380541067,0.96960780899,-0.142380541067,0.0290176225913,0.0910502940645
3800000000.0,0.0297552793692,0.0934218562207,0.968796018388,-0.146142364965,0.968796018388,-0.146142364965,0.0297552793692,0.0934218562207
3900000000.0,0.0305110705481,0.0957865204754,0.967964129458,-0.149897497417,0.967964129458,-0.149897497417,0.0305110705481,0.0957865204754
4000000000.0,0.0312849261261,0.0981441246552,0.967112210668,-0.153645779532,0.967112210668,-0.153645779532,0.0312849261261,0.0981441246552
4100000000.0,0.0320767737224,0.100494507671,0.966240332837,-0.157387053459,0.966240332837,-0.157387053459,0.0320767737224,0.100494507671
4200000000.0,0.0328865386516,0.102837509544,0.965348569059,-0.161121162416,0.965348569059,-0.161121162416,0.0328865386516,0.102837509544
4300000000.0,0.0337141439916,0.105172971439,0.96443699464,-0.16484795072,0.96443699464,-0.16484795072,0.0337141439916,0.105172971439
4400000000.0,0.0345595106479,0.107500735683,0.963505687027,-0.168567263812,0.963505687027,-0.168567263812,0.0345595106479,0.107500735683
4500000000.0,0.0354225574126,0.109820645797,0.962554725757,-0.172278948285,0.962554725757,-0.172278948285,0.0354225574126,0.109820645797
4600000000.0,0.0363032010204,0.112132546518,0.961584192393,-0.175982851911,0.961584192393,-0.175982851911,0.0363032010204,0.112132546518
4700000000.0,0.0372013562015,0.114436283826,0.960594170478,-0.179678823664,0.960594170478,-0.179678823664,0.0372013562015,0.114436283826
4800000000.0,0.0381169357314,0.116731704961,0.959584745482,-0.183366713745,0.959584745482,-0.183366713745,0.0381169357314,0.116731704961
4900000000.0,0.0390498504789,0.119018658457,0.958556004754,-0.187046373609,0.958556004754,-0.187046373609,0.0390498504789,0.119018658457
5000000000.0,0.0400000094511,0.121296994151,0.95750803748,-0.190717655983,0.95750803748,-0.190717655983,0.0400000094511,0.121296994151
5100000000.0,0.0409673198375,0.123566563217,0.956440934634,-0.194380414891,0.956440934634,-0.194380414891,0.0409673198375,0.123566563217
5200000000.0,0.0419516870518,0.125827218177,0.955354788942,-0.198034505676,0.955354788942,-0.198034505676,0.0419516870518,0.125827218177
5300000000.0,0.0429530147727,0.128078812927,0.954249694838,-0.201679785019,0.954249694838,-0.201679785019,0.0429530147727,0.128078812927
5400000000.0,0.0439712049828,0.130321202756,0.953125748423,-0.205316110961,0.953125748423,-0.205316110961,0.0439712049828,0.130321202756
5500000000.0,0.0450061580077,0.132554244363,0.951983047434,-0.208943342923,0.951983047434,-0.208943342923,0.0450061580077,0.132554244363
5600000000.0,0.0460577725522,0.134777795876,0.950821691198,-0.212561341724,0.950821691198,-0.212561341724,0.0460577725522,0.134777795876
5700000000.0,0.0471259457374,0.136991716872,0.949641780602,-0.216169969601,0.949641780602,-0.216169969601,0.0471259457374,0.136991716872
5800000000.0,0.048210573136,0.139195868394,0.948443418057,-0.219769090224,0.948443418057,-0.219769090224,0.048210573136,0.139195868394
5900000000.0,0.0493115488072,0.141390112964,0.947226707459,-0.223358568718,0.947226707459,-0.223358568718,0.0493115488072,0.141390112964
6000000000.0,0.0504287653308,0.143574314605,0.945991754158,-0.226938271675,0.945991754158,-0.226938271675,0.0504287653308,0.143574314605
6100000000.0,0.0515621138411,0.145748338851,0.944738664927,-0.230508067173,0.944738664927,-0.230508067173,0.0515621138411,0.145748338851
6200000000.0,0.0527114840602,0.147912052768,0.943467547922,-0.234067824791,0.943467547922,-0.234067824791,0.0527114840602,0.147912052768
6300000000.0,0.0538767643302,0.150065324963,0.942178512656,-0.237617415626,0.942178512656,-0.237617415626,0.0538767643302,0.150065324963
6400000000.0,0.0550578416461,0.152208025602,0.940871669963,-0.241156712303,0.940871669963,-0.241156712303,0.0550578416461,0.152208025602
6500000000.0,0.0562546016874,0.154340026422,0.939547131968,-0.244685588993,0.939547131968,-0.244685588993,0.0562546016874,0.154340026422
6600000000.0,0.0574669288502,0.156461200744,0.938205012053,-0.248203921424,0.938205012053,-0.248203921424,0.0574669288502,0.156461200744
6700000000.0,0.0586947062777,0.158571423486,0.936845424829,-0.251711586897,0.936845424829,-0.251711586897,0.0586947062777,0.158571423486
6800000000.0,0.059937815892,0.160670571174,0.935468486103,-0.255208464295,0.935468486103,-0.255208464295,0.059937815892,0.160670571174
6900000000.0,0.0611961384246,0.162758521955,0.934074312847,-0.258694434098,0.934074312847,-0.258694434098,0.0611961384246,0.162758521955
7000000000.0,0.0624695534468,0.164835155607,0.932663023169,-0.262169378389,0.932663023169,-0.262169378389,0.0624695534468,0.164835155607
7100000000.0,0.0637579394002,0.166900353548,0.931234736283,-0.265633180872,0.931234736283,-0.265633180872,0.0637579394002,0.166900353548
7200000000.0,0.0650611736269,0.16895399885,0.929789572475,-0.269085726877,0.929789572475,-0.269085726877,0.0650611736269,0.16895399885
7300000000.0,0.066379132399,0.170995976244,0.928327653078,-0.272526903371,0.928327653078,-0.272526903371,0.066379132399,0.170995976244
7400000000.0,0.0677116909488,0.17302617213,0.926849100441,-0.275956598969,0.926849100441,-0.275956598969,0.0677116909488,0.17302617213
7500000000.0,0.069058723498,0.175044474589,0.925354037898,-0.279374703941,0.925354037898,-0.279374703941,0.069058723498,0.175044474589
7600000000.0,0.0704201032874,0.177050773385,0.92384258974,-0.28278111022,0.92384258974,-0.28278111022,0.0704201032874,0.177050773385
7700000000.0,0.0717957026057,0.179044959978,0.922314881185,-0.286175711411,0.922314881185,-0.286175711411,0.0717957026057,0.179044959978
7800000000.0,0.0731853928189,0.181026927526,0.920771038349,-0.289558402796,0.920771038349,-0.289558402796,0.0731853928189,0.181026927526
7900000000.0,0.074589044399,0.182996570895,0.91921118822,-0.292929081344,0.91921118822,-0.292929081344,0.074589044399,0.182996570895
8000000000.0,0.0760065269527,0.184953786665,0.917635458624,-0.296287645715,0.917635458624,-0.296287645715,0.0760065269527,0.184953786665
8100000000.0,0.0774377092503,0.186898473132,0.9160439782,-0.299633996267,0.9160439782,-0.299633996267,0.0774377092503,0.186898473132
8200000000.0,0.0788824592535,0.188830530317,0.914436876373,-0.302968035059,0.914436876373,-0.302968035059,0.0788824592535,0.188830530317
8300000000.0,0.0803406441445,0.190749859968,0.912814283322,-0.306289665859,0.912814283322,-0.306289665859,0.0803406441445,0.190749859968
8400000000.0,0.0818121303532,0.192656365566,0.911176329954,-0.309598794145,0.911176329954,-0.309598794145,0.0818121303532,0.192656365566
8500000000.0,0.0832967835861,0.194549952327,0.909523147875,-0.312895327113,0.909523147875,-0.312895327113,0.0832967835861,0.194549952327
8600000000.0,0.0847944688533,0.196430527205,0.907854869365,-0.316179173675,0.907854869365,-0.316179173675,0.0847944688533,0.196430527205
8700000000.0,0.0863050504966,0.198297998895,0.906171627346,-0.319450244467,0.906171627346,-0.319450244467,0.0863050504966,0.198297998895
8800000000.0,0.087828392217,0.200152277839,0.90447355536,-0.32270845185,0.90447355536,-0.32270845185,0.087828392217,0.200152277839
8900000000.0,0.0893643571016,0.201993276222,0.902760787534,-0.325953709908,0.902760787534,-0.325953709908,0.0893643571016,0.201993276222
9000000000.0,0.0909128076515,0.203820907974,0.901033458561,-0.329185934457,0.901033458561,-0.329185934457,0.0909128076515,0.203820907974
9100000000.0,0.092473605808,0.205635088778,0.89929170367,-0.33240504304,0.89929170367,-0.33240504304,0.092473605808,0.205635088778
9200000000.0,0.0940466129799,0.207435736059,0.897535658595,-0.335610954929,0.897535658595,-0.335610954929,0.0940466129799,0.207435736059
9300000000.0,0.0956316900701,0.209222768997,0.895765459555,-0.338803591128,0.895765459555,-0.338803591128,0.0956316900701,0.209222768997
9400000000.0,0.0972286975019,0.210996108515,0.893981243224,-0.341982874371,0.893981243224,-0.341982874371,0.0972286975019,0.210996108515
9500000000.0,0.0988374952455,0.212755677285,0.892183146706,-0.34514872912,0.892183146706,-0.34514872912,0.0988374952455,0.212755677285
9600000000.0,0.100457942844,0.214501399726,0.890371307505,-0.348301081565,0.890371307505,-0.348301081565,0.100457942844,0.214501399726
9700000000.0,0.102089899439,0.216233202,0.888545863507,-0.351439859625,0.888545863507,-0.351439859625,0.102089899439,0.216233202
9800000000.0,0.103733223797,0.217951012014,0.886706952946,-0.354564992942,0.886706952946,-0.354564992942,0.103733223797,0.217951012014
9900000000.0,0.105387774335,0.219654759412,0.884854714383,-0.357676412883,0.884854714383,-0.357676412883,0.105387774335,0.219654759412
10000000000.0,0.107053409144,0.221344375578,0.882989286681,-0.360774052535,0.882989286681,-0.360774052535,0.107053409144,0.221344375578
