freq (GHz),S11_real,S11_imag,S21_real,S21_imag,S12_real,S12_imag,S22_real,S22_imag
100000000.0,-0.0052565916329,-0.0718882502284,0.994711707841,-0.0719504540214,0.994711707841,-0.0719504540214,-0.0052565916329,-0.0718882502284
200000000.0,-0.0206034026606,-0.141544228062,0.979364674122,-0.141668642855,0.979364674122,-0.141668642855,-0.0206034026606,-0.141544228062
300000000.0,-0.0451072649566,-0.206981458585,0.954860639646,-0.207168095422,0.954860639646,-0.207168095422,-0.0451072649566,-0.206981458585
400000000.0,-0.0773914500874,-0.266612777362,0.922576305614,-0.26686165028,0.922576305614,-0.26686165028,-0.0773914500874,-0.266612777362
500000000.0,-0.115801295664,-0.319350425528,0.884166323985,-0.319661551113,0.884166323985,-0.319661551113,-0.115801295664,-0.319350425528
600000000.0,-0.158592829143,-0.364624377924,0.841374662008,-0.364997775015,0.841374662008,-0.364997775015,-0.158592829143,-0.364624377924
700000000.0,-0.204094672364,-0.402332400812,0.795872694733,-0.402768090277,0.795872694733,-0.402768090277,-0.204094672364,-0.402332400812
800000000.0,-0.250823229114,-0.432746953932,0.749144016369,-0.433244958482,0.749144016369,-0.433244958482,-0.250823229114,-0.432746953932
900000000.0,-0.297546653317,-0.456405524686,0.702420471611,-0.456965868728,0.702420471611,-0.456965868728,-0.297546653317,-0.456405524686
1000000000.0,-0.343304421557,-0.474005381424,0.656662582882,-0.474628090923,0.656662582882,-0.474628090923,-0.343304421557,-0.474005381424
1100000000.0,-0.387394835212,-0.486315399378,0.61257204806,-0.487000501745,0.61257204806,-0.487000501745,-0.387394835212,-0.486315399378
1200000000.0,-0.429343415828,-0.494109925706,0.570623345027,-0.494857449689,0.570623345027,-0.494857449689,-0.429343415828,-0.494109925706
1300000000.0,-0.468862936153,-0.498124240368,0.531103700585,-0.498934215961,0.531103700585,-0.498934215961,-0.468862936153,-0.498124240368
1400000000.0,-0.505812594828,-0.499028233428,0.49415391573,-0.49990069178,0.49415391573,-0.49990069178,-0.505812594828,-0.499028233428
1500000000.0,-0.540160780943,-0.497413901313,0.459805601076,-0.498348874648,0.459805601076,-0.498348874648,-0.540160780943,-0.497413901313
1600000000.0,-0.571953515866,-0.493792425147,0.428012735008,-0.494789946692,0.428012735008,-0.494789946692,-0.571953515866,-0.493792425147
1700000000.0,-0.60128909406,-0.488597314006,0.398677022859,-0.489657417919,0.398677022859,-0.489657417919,-0.60128909406,-0.488597314006
1800000000.0,-0.628298544725,-0.482190967081,0.371667435251,-0.483313688387,0.371667435251,-0.483313688387,-0.628298544725,-0.482190967081
1900000000.0,-0.653131110924,-0.474872812578,0.346834728972,-0.476058187109,0.346834728972,-0.476058187109,-0.653131110924,-0.474872812578
2000000000.0,-0.675943816017,-0.466887829789,0.324021880532,-0.468135894125,0.324021880532,-0.468135894125,-0.675943816017,-0.466887829789
2100000000.0,-0.696894225815,-0.45843474035,0.303071324006,-0.459745531767,0.303071324006,-0.459745531767,-0.696894225815,-0.45843474035
2200000000.0,-0.716135630412,-0.449673486653,0.283829769198,-0.451047043074,0.283829769198,-0.451047043074,-0.716135630412,-0.449673486653
2300000000.0,-0.733814009263,-0.440731831993,0.266151236567,-0.442168191937,0.266151236567,-0.442168191937,-0.733814009263,-0.440731831993
2400000000.0,-0.750066278474,-0.431711050017,0.249898809927,-0.433210252557,0.249898809927,-0.433210252557,-0.750066278474,-0.431711050017
2500000000.0,-0.765019437634,-0.422690746847,0.23494548962,-0.424252831569,0.23494548962,-0.424252831569,-0.765019437634,-0.422690746847
2600000000.0,-0.778790330777,-0.413732897563,0.221174431545,-0.415357904521,0.221174431545,-0.415357904521,-0.778790330777,-0.413732897563
2700000000.0,-0.791485812867,-0.404885193836,0.208478780683,-0.406573163521,0.208478780683,-0.406573163521,-0.791485812867,-0.404885193836
2800000000.0,-0.803203172026,-0.39618380093,0.196761248858,-0.397934774231,0.196761248858,-0.397934774231,-0.803203172026,-0.39618380093
2900000000.0,-0.814030701938,-0.387655616214,0.185933542339,-0.389469634386,0.185933542339,-0.389469634386,-0.814030701938,-0.387655616214
3000000000.0,-0.824048351355,-0.379320111803,0.17591571233,-0.381197216437,0.17591571233,-0.381197216437,-0.824048351355,-0.379320111803
3100000000.0,-0.83332840131,-0.371190833139,0.166635477757,-0.373131066129,0.166635477757,-0.373131066129,-0.83332840131,-0.371190833139
3200000000.0,-0.841936137556,-0.363276614701,0.15802755283,-0.365280018221,0.15802755283,-0.365280018221,-0.841936137556,-0.363276614701
3300000000.0,-0.849930497732,-0.355582564251,0.150032999875,-0.357649180726,0.150032999875,-0.357649180726,-0.849930497732,-0.355582564251
3400000000.0,-0.857364681104,-0.348110858272,0.142598619592,-0.350240730356,0.142598619592,-0.350240730356,-0.857364681104,-0.348110858272
3500000000.0,-0.864286714474,-0.340861383836,0.13567638515,-0.343054554388,0.13567638515,-0.343054554388,-0.864286714474,-0.340861383836
3600000000.0,-0.87073997169,-0.333832255742,0.129222922673,-0.336088767803,0.129222922673,-0.336088767803,-0.87073997169,-0.333832255742
3700000000.0,-0.876763646727,-0.327020232507,0.123199038159,-0.329340129284,0.123199038159,-0.329340129284,-0.876763646727,-0.327020232507
3800000000.0,-0.882393181911,-0.3204210504,0.117569289256,-0.322804375244,0.117569289256,-0.322804375244,-0.882393181911,-0.3204210504
3900000000.0,-0.887660653816,-0.314029691116,0.112301599367,-0.316476487508,0.112301599367,-0.316476487508,-0.887660653816,-0.314029691116
4000000000.0,-0.892595119846,-0.307840595748,0.107366911065,-0.310350907279,0.107366911065,-0.310350907279,-0.892595119846,-0.307840595748
4100000000.0,-0.897222928774,-0.301847835305,0.102738875555,-0.304421705664,0.102738875555,-0.304421705664,-0.897222928774,-0.301847835305
4200000000.0,-0.901567998494,-0.296045246101,0.0983935749235,-0.298682719061,0.0983935749235,-0.298682719061,-0.901567998494,-0.296045246101
4300000000.0,-0.905652064163,-0.290426536754,0.0943092739938,-0.293127656158,0.0943092739938,-0.293127656158,-0.905652064163,-0.290426536754
4400000000.0,-0.909494899724,-0.28498537223,0.0904661988039,-0.28775018198,0.0904661988039,-0.28775018198,-0.909494899724,-0.28498537223
4500000000.0,-0.913114515595,-0.279715439379,0.0868463389179,-0.282543983425,0.0868463389179,-0.282543983425,-0.913114515595,-0.279715439379
4600000000.0,-0.91652733507,-0.274610497525,0.0834332710241,-0.277502819854,0.0834332710241,-0.277502819854,-0.91652733507,-0.274610497525
4700000000.0,-0.919748351751,-0.269664417029,0.0802120015054,-0.272620561658,0.0802120015054,-0.272620561658,-0.919748351751,-0.269664417029
4800000000.0,-0.922791270089,-0.264871208167,0.0771688258931,-0.267891219135,0.0771688258931,-0.267891219135,-0.922791270089,-0.264871208167
4900000000.0,-0.925668630924,-0.260225042252,0.0742912033327,-0.263308963609,0.0742912033327,-0.263308963609,-0.925668630924,-0.260225042252
5000000000.0,-0.928391923677,-0.255720266522,0.0715676443891,-0.258868142327,0.0715676443891,-0.258868142327,-0.928391923677,-0.255720266522
5100000000.0,-0.930971686693,-0.251351414077,0.068987610701,-0.254563288387,0.068987610701,-0.254563288387,-0.930971686693,-0.251351414077
5200000000.0,-0.933417597067,-0.247113209869,0.0665414251609,-0.25038912674,0.0665414251609,-0.25038912674,-0.933417597067,-0.247113209869
5300000000.0,-0.935738551104,-0.24300057358,0.0642201914483,-0.246340577054,0.0642201914483,-0.246340577054,-0.935738551104,-0.24300057358
5400000000.0,-0.937942736484,-0.239008620047,0.0620157218725,-0.242412754155,0.0620157218725,-0.242412754155,-0.937942736484,-0.239008620047
5500000000.0,-0.940037697018,-0.23513265779,0.0599204726074,-0.238600966546,0.0599204726074,-0.238600966546,-0.940037697018,-0.23513265779
5600000000.0,-0.942030390846,-0.231368186073,0.0579274855006,-0.23490071347,0.0579274855006,-0.23490071347,-0.942030390846,-0.231368186073
5700000000.0,-0.943927242772,-0.227710890858,0.0560303357366,-0.231307680867,0.0560303357366,-0.231307680867,-0.943927242772,-0.227710890858
5800000000.0,-0.945734191383,-0.224156639931,0.0542230847166,-0.227817736497,0.0542230847166,-0.227817736497,-0.945734191383,-0.224156639931
5900000000.0,-0.947456731518,-0.220701477434,0.0525002375884,-0.224426924479,0.0525002375884,-0.224426924479,-0.947456731518,-0.220701477434
6000000000.0,-0.949099952589,-0.217341617997,0.0508567049283,-0.221131459411,0.0508567049283,-0.221131459411,-0.949099952589,-0.217341617997
6100000000.0,-0.950668573191,-0.214073440591,0.0492877681309,-0.21792772024,0.0492877681309,-0.21792772024,-0.950668573191,-0.214073440591
6200000000.0,-0.952166972394,-0.210893482255,0.0477890481147,-0.214812243974,0.0477890481147,-0.214812243974,-0.952166972394,-0.210893482255
6300000000.0,-0.95359921807,-0.207798431754,0.0463564769964,-0.211781719351,0.0463564769964,-0.211781719351,-0.95359921807,-0.207798431754
6400000000.0,-0.954969092562,-0.204785123266,0.0449862724227,-0.20883298052,0.0449862724227,-0.20883298052,-0.954969092562,-0.204785123266
6500000000.0,-0.956280115964,-0.201850530144,0.0436749142882,-0.205963000806,0.0436749142882,-0.205963000806,-0.956280115964,-0.201850530144
6600000000.0,-0.957535567264,-0.198991758794,0.0424191235933,-0.203168886591,0.0424191235933,-0.203168886591,-0.957535567264,-0.198991758794
6700000000.0,-0.958738503565,-0.196206042708,0.0412158432264,-0.200447871339,0.0412158432264,-0.200447871339,-0.958738503565,-0.196206042708
6800000000.0,-0.959891777566,-0.193490736668,0.0400622204768,-0.197797309808,0.0400622204768,-0.197797309808,-0.959891777566,-0.193490736668
6900000000.0,-0.960998053497,-0.190843311142,0.0389555911054,-0.195214672446,0.0389555911054,-0.195214672446,-0.960998053497,-0.190843311142
7000000000.0,-0.962059821636,-0.188261346891,0.0378934648221,-0.192697539993,0.0378934648221,-0.192697539993,-0.962059821636,-0.188261346891
7100000000.0,-0.963079411573,-0.185742529771,0.0368735120287,-0.190243598288,0.0368735120287,-0.190243598288,-0.963079411573,-0.185742529771
7200000000.0,-0.964059004313,-0.183284645765,0.035893551709,-0.187850633295,0.035893551709,-0.187850633295,-0.964059004313,-0.183284645765
7300000000.0,-0.965000643357,-0.180885576209,0.0349515403531,-0.18551652634,0.0349515403531,-0.18551652634,-0.965000643357,-0.180885576209
7400000000.0,-0.965906244836,-0.178543293246,0.0340455618192,-0.183239249557,0.0340455618192,-0.183239249557,-0.965906244836,-0.178543293246
7500000000.0,-0.966777606803,-0.176255855482,0.033173818045,-0.18101686154,0.033173818045,-0.18101686154,-0.966777606803,-0.176255855482
7600000000.0,-0.967616417749,-0.174021403838,0.0323346205282,-0.178847503209,0.0323346205282,-0.178847503209,-0.967616417749,-0.174021403838
7700000000.0,-0.968424264429,-0.17183815761,0.031526382507,-0.176729393857,0.031526382507,-0.176729393857,-0.968424264429,-0.17183815761
7800000000.0,-0.969202639036,-0.169704410715,0.0307476117754,-0.174660827405,0.0307476117754,-0.174660827405,-0.969202639036,-0.169704410715
7900000000.0,-0.969952945821,-0.167618528122,0.0299969040757,-0.172640168825,0.0299969040757,-0.172640168825,-0.969952945821,-0.167618528122
8000000000.0,-0.970676507162,-0.165578942456,0.0292729370181,-0.170665850752,0.0292729370181,-0.170665850752,-0.970676507162,-0.165578942456
8100000000.0,-0.971374569174,-0.163584150778,0.0285744644784,-0.16873637026,0.0285744644784,-0.16873637026,-0.971374569174,-0.163584150778
8200000000.0,-0.972048306871,-0.161632711525,0.0279003114337,-0.166850285801,0.0279003114337,-0.166850285801,-0.972048306871,-0.161632711525
8300000000.0,-0.97269882893,-0.159723241602,0.0272493691965,-0.1650062143,0.0272493691965,-0.1650062143,-0.97269882893,-0.159723241602
8400000000.0,-0.973327182095,-0.157854413623,0.0266205910139,-0.163202828396,0.0266205910139,-0.163202828396,-0.973327182095,-0.157854413623
8500000000.0,-0.973934355243,-0.156024953297,0.0260129879996,-0.161438853824,0.0260129879996,-0.161438853824,-0.973934355243,-0.156024953297
8600000000.0,-0.974521283144,-0.15423363694,0.0254256253721,-0.159713066932,0.0254256253721,-0.159713066932,-0.974521283144,-0.15423363694
8700000000.0,-0.975088849951,-0.152479289119,0.024857618971,-0.158024292323,0.024857618971,-0.158024292323,-0.975088849951,-0.152479289119
8800000000.0,-0.975637892419,-0.150760780418,0.0243081320315,-0.15637140062,0.0243081320315,-0.15637140062,-0.975637892419,-0.150760780418
8900000000.0,-0.976169202898,-0.149077025311,0.0237763721922,-0.154753306341,0.0237763721922,-0.154753306341,-0.976169202898,-0.149077025311
9000000000.0,-0.976683532112,-0.147426980152,0.0232615887204,-0.153168965888,0.0232615887204,-0.153168965888,-0.976683532112,-0.147426980152
9100000000.0,-0.977181591733,-0.145809641264,0.0227630699349,-0.151617375633,0.0227630699349,-0.151617375633,-0.977181591733,-0.145809641264
9200000000.0,-0.977664056774,-0.144224043119,0.0222801408123,-0.150097570108,0.0222801408123,-0.150097570108,-0.977664056774,-0.144224043119
9300000000.0,-0.978131567818,-0.142669256624,0.0218121607605,-0.148608620278,0.0218121607605,-0.148608620278,-0.978131567818,-0.142669256624
9400000000.0,-0.978584733086,-0.141144387482,0.0213585215479,-0.147149631911,0.0213585215479,-0.147149631911,-0.978584733086,-0.141144387482
9500000000.0,-0.979024130369,-0.139648574641,0.020918645375,-0.145719744022,0.020918645375,-0.145719744022,-0.979024130369,-0.139648574641
9600000000.0,-0.97945030882,-0.138180988817,0.0204919830773,-0.144318127402,0.0204919830773,-0.144318127402,-0.97945030882,-0.138180988817
9700000000.0,-0.979863790634,-0.1367408311,0.0200780124509,-0.142943983215,0.0200780124509,-0.142943983215,-0.979863790634,-0.1367408311
9800000000.0,-0.980265072607,-0.135327331617,0.0196762366893,-0.141596541671,0.0196762366893,-0.141596541671,-0.980265072607,-0.135327331617
9900000000.0,-0.980654627598,-0.133939748272,0.0192861829252,-0.14027506076,0.0192861829252,-0.14027506076,-0.980654627598,-0.133939748272
10000000000.0,-0.981032905886,-0.132577365543,0.0189074008675,-0.138978825047,0.0189074008675,-0.138978825047,-0.981032905886,-0.132577365543
