freq (GHz),S11_real,S11_imag,S21_real,S21_imag,S12_real,S12_imag,S22_real,S22_imag
100000000.0,0.000130323284852,-0.00230417773207,0.999849122292,-0.00305100572112,0.999849122292,-0.00305100572112,0.000130323284852,-0.00230417773207
200000000.0,0.000107573581018,-0.00460834973802,0.999823636073,-0.0061020303706,0.999823636073,-0.0061020303706,0.000107573581019,-0.00460834973802
300000000.0,7.05161765318e-05,-0.00691247155163,0.999783772884,-0.00915304517077,0.999783772884,-0.00915304517077,7.0516176532e-05,-0.00691247155163
400000000.0,1.92707687945e-05,-0.0092164830532,0.999729409757,-0.0122040018794,0.999729409757,-0.0122040018794,1.92707687943e-05,-0.0092164830532
500000000.0,-4.61174590036e-05,-0.0115203159438,0.999660498592,-0.0152548423702,0.999660498592,-0.0152548423702,-4.61174590035e-05,-0.0115203159438
600000000.0,-0.000125625877542,-0.013823896441,0.999577014484,-0.0183055019641,0.999577014484,-0.0183055019641,-0.000125625877542,-0.013823896441
700000000.0,-0.000219241157244,-0.0161271466732,0.999478942668,-0.021355911133,0.999478942668,-0.021355911133,-0.000219241157244,-0.0161271466732
800000000.0,-0.000326954396379,-0.0184299855256,0.999366273804,-0.0244059965254,0.999366273804,-0.0244059965254,-0.000326954396379,-0.0184299855256
900000000.0,-0.000448758926102,-0.020732329205,0.999239001909,-0.0274556816479,0.999239001909,-0.0274556816479,-0.000448758926102,-0.020732329205
1000000000.0,-0.000584649178145,-0.023034091644,0.999097123331,-0.0305048873502,0.999097123331,-0.0305048873502,-0.000584649178145,-0.023034091644
1100000000.0,-0.000734620039895,-0.0253351848048,0.9989406362,-0.033553532187,0.9989406362,-0.033553532187,-0.000734620039895,-0.0253351848048
1200000000.0,-0.000898666457658,-0.027635518915,0.998769540109,-0.0366015326995,0.998769540109,-0.0366015326995,-0.000898666457658,-0.027635518915
1300000000.0,-0.00107678317691,-0.029935002659,0.998583835929,-0.0396488036406,0.998583835929,-0.0396488036406,-0.00107678317691,-0.029935002659
1400000000.0,-0.00126896456315,-0.0322335433349,0.998383525692,-0.04269525816,0.998383525692,-0.04269525816,-0.00126896456315,-0.0322335433349
1500000000.0,-0.0014752044728,-0.0345310469868,0.998168612524,-0.0457408079591,0.998168612524,-0.0457408079591,-0.0014752044728,-0.0345310469868
1600000000.0,-0.00169549615652,-0.0368274185191,0.997939100597,-0.048785363424,0.997939100597,-0.048785363424,-0.00169549615652,-0.0368274185191
1700000000.0,-0.0019298321845,-0.0391225617955,0.99769499511,-0.0518288337406,0.99769499511,-0.0518288337406,-0.0019298321845,-0.0391225617955
1800000000.0,-0.00217820438705,-0.0414163797269,0.997436302266,-0.0548711269955,0.997436302266,-0.0548711269955,-0.00217820438705,-0.0414163797269
1900000000.0,-0.00244060380621,-0.0437087743504,0.997163029273,-0.0579121502669,0.997163029273,-0.0579121502669,-0.00244060380621,-0.0437087743504
2000000000.0,-0.00271702065559,-0.0459996468998,0.996875184337,-0.060951809705,0.996875184337,-0.060951809705,-0.00271702065559,-0.0459996468998
2100000000.0,-0.00300744428635,-0.0482888978711,0.996572776666,-0.0639900106065,0.996572776666,-0.0639900106065,-0.00300744428635,-0.0482888978711
2200000000.0,-0.00331186315814,-0.0505764270821,0.996255816471,-0.0670266574815,0.996255816471,-0.0670266574815,-0.00331186315814,-0.0505764270821
2300000000.0,-0.00363026481381,-0.0528621337277,0.995924314972,-0.0700616541167,0.995924314972,-0.0700616541167,-0.00363026481381,-0.0528621337277
2400000000.0,-0.00396263585734,-0.0551459164321,0.995578284407,-0.0730949036326,0.995578284407,-0.0730949036326,-0.00396263585734,-0.0551459164321
2500000000.0,-0.00430896193431,-0.0574276732971,0.995217738033,-0.0761263085383,0.995217738033,-0.0761263085383,-0.00430896193431,-0.0574276732971
2600000000.0,-0.00466922771462,-0.0597073019484,0.994842690137,-0.079155770782,0.994842690137,-0.079155770782,-0.00466922771462,-0.0597073019484
2700000000.0,-0.00504341687705,-0.0619846995787,0.994453156038,-0.0821831917996,0.994453156038,-0.0821831917996,-0.00504341687705,-0.0619846995787
2800000000.0,-0.00543151209548,-0.0642597629897,0.9940491521,-0.08520847256,0.9940491521,-0.08520847256,-0.00543151209548,-0.0642597629897
2900000000.0,-0.00583349502658,-0.0665323886313,0.993630695732,-0.0882315136086,0.993630695732,-0.0882315136086,-0.00583349502658,-0.0665323886313
3000000000.0,-0.00624934629874,-0.0688024726399,0.993197805396,-0.0912522151093,0.993197805396,-0.0912522151093,-0.00624934629874,-0.0688024726399
3100000000.0,-0.00667904550224,-0.0710699108751,0.992750500616,-0.0942704768835,0.992750500616,-0.0942704768835,-0.00667904550224,-0.0710699108751
3200000000.0,-0.00712257118036,-0.0733345989548,0.992288801976,-0.0972861984491,0.992288801976,-0.0972861984491,-0.00712257118036,-0.0733345989548
3300000000.0,-0.0075799008216,-0.0755964322893,0.991812731133,-0.100299279057,0.991812731133,-0.100299279057,-0.0075799008216,-0.0755964322893
3400000000.0,-0.00805101085275,-0.0778553061147,0.991322310813,-0.103309617728,0.991322310813,-0.103309617728,-0.00805101085275,-0.0778553061147
3500000000.0,-0.00853587663274,-0.0801111155246,0.990817564822,-0.106317113284,0.990817564822,-0.106317113284,-0.00853587663274,-0.0801111155246
3600000000.0,-0.00903447244743,-0.0823637555014,0.990298518044,-0.109321664385,0.990298518044,-0.109321664385,-0.00903447244743,-0.0823637555014
3700000000.0,-0.00954677150499,-0.0846131209469,0.989765196448,-0.11232316956,0.989765196448,-0.11232316956,-0.00954677150499,-0.0846131209469
3800000000.0,-0.0100727459321,-0.0868591067117,0.989217627086,-0.11532152724,0.989217627086,-0.11532152724,-0.0100727459321,-0.0868591067117
3900000000.0,-0.0106123667708,-0.0891016076242,0.9886558381,-0.118316635785,0.9886558381,-0.118316635785,-0.0106123667708,-0.0891016076242
4000000000.0,-0.0111656039758,-0.0913405185188,0.988079858717,-0.121308393519,0.988079858717,-0.121308393519,-0.0111656039758,-0.0913405185188
4100000000.0,-0.011732426413,-0.0935757342637,0.987489719255,-0.124296698754,0.987489719255,-0.124296698754,-0.011732426413,-0.0935757342637
4200000000.0,-0.0123128018576,-0.0958071497877,0.986885451124,-0.127281449826,0.986885451124,-0.127281449826,-0.0123128018576,-0.0958071497877
4300000000.0,-0.0129066969938,-0.0980346601067,0.986267086821,-0.130262545113,0.986267086821,-0.130262545113,-0.0129066969938,-0.0980346601067
4400000000.0,-0.0135140774146,-0.10025816035,0.985634659934,-0.133239883072,0.985634659934,-0.133239883072,-0.0135140774146,-0.10025816035
4500000000.0,-0.0141349076217,-0.102477545785,0.984988205136,-0.136213362259,0.984988205136,-0.136213362259,-0.0141349076217,-0.102477545785
4600000000.0,-0.0147691510269,-0.104692711844,0.984327758192,-0.139182881358,0.984327758192,-0.139182881358,-0.0147691510269,-0.104692711844
4700000000.0,-0.0154167699533,-0.106903554146,0.983653355949,-0.142148339209,0.983653355949,-0.142148339209,-0.0154167699533,-0.106903554146
4800000000.0,-0.0160777256369,-0.109109968523,0.982965036336,-0.145109634828,0.982965036336,-0.145109634828,-0.0160777256369,-0.109109968523
4900000000.0,-0.0167519782293,-0.111311851042,0.982262838365,-0.148066667434,0.982262838365,-0.148066667434,-0.0167519782293,-0.111311851042
5000000000.0,-0.0174394868,-0.113509098029,0.981546802123,-0.151019336476,0.981546802123,-0.151019336476,-0.0174394868,-0.113509098029
5100000000.0,-0.0181402093402,-0.115701606094,0.980816968771,-0.153967541654,0.980816968771,-0.153967541654,-0.0181402093402,-0.115701606094
5200000000.0,-0.0188541027659,-0.117889272149,0.980073380539,-0.15691118294,0.980073380539,-0.15691118294,-0.0188541027659,-0.117889272149
5300000000.0,-0.0195811229224,-0.120071993433,0.979316080722,-0.159850160608,0.979316080722,-0.159850160608,-0.0195811229224,-0.120071993433
5400000000.0,-0.0203212245886,-0.122249667532,0.978545113678,-0.162784375248,0.978545113678,-0.162784375248,-0.0203212245886,-0.122249667532
5500000000.0,-0.0210743614817,-0.124422192402,0.977760524816,-0.165713727797,0.977760524816,-0.165713727797,-0.0210743614817,-0.124422192402
5600000000.0,-0.021840486263,-0.126589466391,0.9769623606,-0.168638119551,0.9769623606,-0.168638119551,-0.021840486263,-0.126589466391
5700000000.0,-0.0226195505431,-0.128751388254,0.976150668534,-0.171557452195,0.976150668534,-0.171557452195,-0.0226195505431,-0.128751388254
5800000000.0,-0.0234115048879,-0.130907857179,0.975325497162,-0.174471627819,0.975325497162,-0.174471627819,-0.0234115048879,-0.130907857179
5900000000.0,-0.0242162988255,-0.133058772804,0.974486896058,-0.177380548941,0.974486896058,-0.177380548941,-0.0242162988255,-0.133058772804
6000000000.0,-0.0250338808522,-0.135204035237,0.973634915823,-0.180284118523,0.973634915823,-0.180284118523,-0.0250338808522,-0.135204035237
6100000000.0,-0.0258641984405,-0.137343545076,0.972769608072,-0.183182239997,0.972769608072,-0.183182239997,-0.0258641984405,-0.137343545076
6200000000.0,-0.0267071980456,-0.139477203426,0.971891025433,-0.18607481728,0.971891025433,-0.18607481728,-0.0267071980456,-0.139477203426
6300000000.0,-0.0275628251138,-0.14160491192,0.970999221534,-0.188961754794,0.970999221534,-0.188961754794,-0.0275628251138,-0.14160491192
6400000000.0,-0.0284310240903,-0.143726572734,0.970094250997,-0.191842957485,0.970094250997,-0.191842957485,-0.0284310240903,-0.143726572734
6500000000.0,-0.0293117384275,-0.145842088607,0.96917616943,-0.194718330842,0.96917616943,-0.194718330842,-0.0293117384275,-0.145842088607
6600000000.0,-0.0302049105941,-0.147951362858,0.968245033417,-0.197587780913,0.968245033417,-0.197587780913,-0.0302049105941,-0.147951362858
6700000000.0,-0.0311104820835,-0.150054299403,0.96730090051,-0.200451214325,0.96730090051,-0.200451214325,-0.0311104820835,-0.150054299403
6800000000.0,-0.0320283934234,-0.152150802771,0.96634382922,-0.2033085383,0.96634382922,-0.2033085383,-0.0320283934234,-0.152150802771
6900000000.0,-0.0329585841854,-0.154240778121,0.965373879005,-0.206159660672,0.965373879005,-0.206159660672,-0.0329585841854,-0.154240778121
7000000000.0,-0.0339009929944,-0.15632413126,0.964391110262,-0.209004489904,0.964391110262,-0.209004489904,-0.0339009929944,-0.15632413126
7100000000.0,-0.0348555575393,-0.158400768655,0.963395584318,-0.211842935104,0.963395584318,-0.211842935104,-0.0348555575393,-0.158400768655
7200000000.0,-0.0358222145827,-0.160470597453,0.962387363417,-0.214674906041,0.962387363417,-0.214674906041,-0.0358222145827,-0.160470597453
7300000000.0,-0.0368008999719,-0.16253352549,0.961366510713,-0.217500313159,0.961366510713,-0.217500313159,-0.0368008999719,-0.16253352549
7400000000.0,-0.0377915486494,-0.164589461313,0.960333090253,-0.220319067596,0.960333090253,-0.220319067596,-0.0377915486494,-0.164589461313
7500000000.0,-0.0387940946641,-0.16663831419,0.959287166974,-0.223131081196,0.959287166974,-0.223131081196,-0.0387940946641,-0.16663831419
7600000000.0,-0.0398084711827,-0.168679994123,0.958228806684,-0.225936266523,0.958228806684,-0.225936266523,-0.0398084711827,-0.168679994123
7700000000.0,-0.0408346105007,-0.170714411867,0.957158076057,-0.228734536877,0.957158076057,-0.228734536877,-0.0408346105007,-0.170714411867
7800000000.0,-0.0418724440548,-0.172741478939,0.956075042616,-0.231525806308,0.956075042616,-0.231525806308,-0.0418724440548,-0.172741478939
7900000000.0,-0.0429219024341,-0.174761107631,0.954979774724,-0.234309989628,0.954979774724,-0.234309989628,-0.0429219024341,-0.174761107631
8000000000.0,-0.0439829153925,-0.176773211029,0.953872341572,-0.237087002425,0.953872341572,-0.237087002425,-0.0439829153925,-0.176773211029
8100000000.0,-0.0450554118612,-0.178777703016,0.952752813166,-0.239856761075,0.952752813166,-0.239856761075,-0.0450554118612,-0.178777703016
8200000000.0,-0.0461393199606,-0.180774498292,0.951621260313,-0.242619182758,0.951621260313,-0.242619182758,-0.0461393199606,-0.180774498292
8300000000.0,-0.0472345670133,-0.182763512383,0.950477754612,-0.245374185465,0.950477754612,-0.245374185465,-0.0472345670133,-0.182763512383
8400000000.0,-0.0483410795571,-0.184744661652,0.949322368437,-0.248121688015,0.949322368437,-0.248121688015,-0.0483410795571,-0.184744661652
8500000000.0,-0.0494587833573,-0.186717863312,0.948155174927,-0.250861610061,0.948155174927,-0.250861610061,-0.0494587833573,-0.186717863312
8600000000.0,-0.0505876034204,-0.188683035435,0.946976247972,-0.253593872106,0.946976247972,-0.253593872106,-0.0505876034204,-0.188683035435
8700000000.0,-0.0517274640071,-0.190640096964,0.945785662201,-0.256318395513,0.945785662201,-0.256318395513,-0.0517274640071,-0.190640096964
8800000000.0,-0.0528782886457,-0.192588967723,0.944583492964,-0.259035102513,0.944583492964,-0.259035102513,-0.0528782886457,-0.192588967723
8900000000.0,-0.0540400001457,-0.194529568427,0.943369816325,-0.261743916219,0.943369816325,-0.261743916219,-0.0540400001457,-0.194529568427
9000000000.0,-0.0552125206114,-0.19646182069,0.942144709042,-0.264444760631,0.942144709042,-0.264444760631,-0.0552125206114,-0.19646182069
9100000000.0,-0.0563957714557,-0.198385647038,0.94090824856,-0.267137560652,0.94090824856,-0.267137560652,-0.0563957714557,-0.198385647038
9200000000.0,-0.0575896734137,-0.200300970914,0.939660512991,-0.269822242092,0.939660512991,-0.269822242092,-0.0575896734137,-0.200300970914
9300000000.0,-0.0587941465573,-0.20220771669,0.938401581102,-0.272498731678,0.938401581102,-0.272498731678,-0.0587941465573,-0.20220771669
9400000000.0,-0.0600091103088,-0.204105809675,0.937131532302,-0.275166957066,0.937131532302,-0.275166957066,-0.0600091103088,-0.204105809675
9500000000.0,-0.061234483455,-0.205995176119,0.935850446628,-0.277826846843,0.935850446628,-0.277826846843,-0.061234483455,-0.205995176119
9600000000.0,-0.0624701841621,-0.207875743226,0.934558404728,-0.280478330542,0.934558404728,-0.280478330542,-0.0624701841621,-0.207875743226
9700000000.0,-0.0637161299891,-0.20974743916,0.933255487851,-0.283121338645,0.933255487851,-0.283121338645,-0.0637161299891,-0.20974743916
9800000000.0,-0.0649722379033,-0.21161019305,0.931941777826,-0.285755802592,0.931941777826,-0.285755802592,-0.0649722379033,-0.21161019305
9900000000.0,-0.0662384242937,-0.213463934999,0.930617357057,-0.288381654789,0.930617357057,-0.288381654789,-0.0662384242937,-0.213463934999
10000000000.0,-0.0675146049866,-0.215308596092,0.929282308498,-0.290998828611,0.929282308498,-0.290998828611,-0.0675146049866,-0.215308596092
