freq (GHz),S11_real,S11_imag,S21_real,S21_imag,S12_real,S12_imag,S22_real,S22_imag
100000000.0,0.000354320044924,-0.00174547865378,0.999627431496,-0.00324288440494,0.999627431496,-0.00324288440494,0.000354320044924,-0.00174547865378
200000000.0,0.000337382383599,-0.00349092952978,0.999602232774,-0.00648575748783,0.999602232774,-0.00648575748783,0.000337382383599,-0.00349092952978
300000000.0,0.000308489291057,-0.00523630271292,0.999564100162,-0.00972859137243,0.999564100162,-0.00972859137243,0.000308489291057,-0.00523630271292
400000000.0,0.000267953878344,-0.00698154130955,0.999512719304,-0.0129713439248,0.999512719304,-0.0129713439248,0.000267953878344,-0.00698154130955
500000000.0,0.000215896388417,-0.00872658430831,0.999447969119,-0.0162139662823,0.999447969119,-0.0162139662823,0.000215896388417,-0.00872658430831
600000000.0,0.000152378201181,-0.010471367861,0.999369787946,-0.0194564052413,0.999369787946,-0.0194564052413,0.000152378201181,-0.010471367861
700000000.0,7.74358921514e-05,-0.0122158259789,0.9992781396,-0.0226986044419,0.9992781396,-0.0226986044419,7.74358921516e-05,-0.0122158259789
800000000.0,-8.90632980588e-06,-0.0139598909656,0.999173001012,-0.0259405050694,0.999173001012,-0.0259405050694,-8.90632980588e-06,-0.0139598909656
900000000.0,-0.000106631075796,-0.0157034937114,0.999054356762,-0.0291820463147,0.999054356762,-0.0291820463147,-0.000106631075796,-0.0157034937114
1000000000.0,-0.000215724957518,-0.0174465639055,0.998922196306,-0.0324231656986,0.998922196306,-0.0324231656986,-0.000215724957518,-0.0174465639055
1100000000.0,-0.00033617701334,-0.0191890301966,0.99877651246,-0.0356637993111,0.99877651246,-0.0356637993111,-0.00033617701334,-0.0191890301966
1200000000.0,-0.000467977764831,-0.0209308203182,0.998617300495,-0.0389038819964,0.998617300495,-0.0389038819964,-0.000467977764831,-0.0209308203182
1300000000.0,-0.000611118618485,-0.022671861191,0.99844455758,-0.0421433474995,0.99844455758,-0.0421433474995,-0.000611118618485,-0.022671861191
1400000000.0,-0.000765591468503,-0.0244120790059,0.998258282418,-0.0453821285859,0.998258282418,-0.0453821285859,-0.000765591468503,-0.0244120790059
1500000000.0,-0.000931388422746,-0.0261513992957,0.998058475001,-0.048620157141,0.998058475001,-0.048620157141,-0.000931388422746,-0.0261513992957
1600000000.0,-0.00110850160739,-0.0278897469954,0.997845136446,-0.0518573642544,0.997845136446,-0.0518573642544,-0.00110850160739,-0.0278897469954
1700000000.0,-0.00129692302368,-0.0296270464954,0.997618268877,-0.0550936802922,0.997618268877,-0.0550936802922,-0.00129692302368,-0.0296270464954
1800000000.0,-0.00149664444024,-0.0313632216888,0.997377875337,-0.0583290349611,0.997377875337,-0.0583290349611,-0.00149664444024,-0.0313632216888
1900000000.0,-0.00170765731032,-0.033098196013,0.997123959732,-0.0615633573638,0.997123959732,-0.0615633573638,-0.00170765731032,-0.033098196013
2000000000.0,-0.00192995270701,-0.0348318924876,0.996856526786,-0.0647965760488,0.996856526786,-0.0647965760488,-0.00192995270701,-0.0348318924876
2100000000.0,-0.00216352127154,-0.0365642337492,0.996575582002,-0.0680286190564,0.996575582002,-0.0680286190564,-0.00216352127154,-0.0365642337492
2200000000.0,-0.00240835317145,-0.038295142083,0.996281131644,-0.0712594139585,0.996281131644,-0.0712594139585,-0.00240835317145,-0.038295142083
2300000000.0,-0.00266443806626,-0.0400245394527,0.995973182716,-0.074488887897,0.995973182716,-0.074488887897,-0.00266443806626,-0.0400245394527
2400000000.0,-0.00293176507887,-0.0417523475271,0.995651742948,-0.0777169676181,0.995651742948,-0.0777169676181,-0.00293176507887,-0.0417523475271
2500000000.0,-0.00321032277164,-0.0434784877066,0.995316820785,-0.0809435795042,0.995316820785,-0.0809435795042,-0.00321032277164,-0.0434784877066
2600000000.0,-0.00350009912599,-0.0452028811475,0.994968425382,-0.0841686496047,0.994968425382,-0.0841686496047,-0.00350009912599,-0.0452028811475
2700000000.0,-0.00380108152496,-0.0469254487842,0.994606566595,-0.087392103663,0.994606566595,-0.087392103663,-0.00380108152496,-0.0469254487842
2800000000.0,-0.00411325673827,-0.048646111352,0.99423125498,-0.0906138671441,0.99423125498,-0.0906138671441,-0.00411325673827,-0.048646111352
2900000000.0,-0.00443661090922,-0.0503647894076,0.993842501787,-0.0938338652593,0.993842501787,-0.0938338652593,-0.00443661090922,-0.0503647894076
3000000000.0,-0.00477112954336,-0.052081403349,0.99344031896,-0.0970520229899,0.99344031896,-0.0970520229899,-0.00477112954336,-0.052081403349
3100000000.0,-0.00511679749856,-0.0537958734351,0.993024719137,-0.10026826511,0.993024719137,-0.10026826511,-0.00511679749856,-0.0537958734351
3200000000.0,-0.00547359897631,-0.0555081198037,0.992595715644,-0.10348251621,0.992595715644,-0.10348251621,-0.00547359897631,-0.0555081198037
3300000000.0,-0.00584151751396,-0.0572180624902,0.992153322499,-0.106694700713,0.992153322499,-0.106694700713,-0.00584151751396,-0.0572180624902
3400000000.0,-0.00622053597803,-0.0589256214444,0.991697554409,-0.109904742901,0.991697554409,-0.109904742901,-0.00622053597803,-0.0589256214444
3500000000.0,-0.00661063655824,-0.0606307165474,0.991228426774,-0.11311256693,0.991228426774,-0.11311256693,-0.00661063655824,-0.0606307165474
3600000000.0,-0.00701180076225,-0.0623332676284,0.99074595568,-0.116318096849,0.99074595568,-0.116318096849,-0.00701180076225,-0.0623332676284
3700000000.0,-0.00742400941108,-0.0640331944802,0.990250157905,-0.119521256621,0.990250157905,-0.119521256621,-0.00742400941108,-0.0640331944802
3800000000.0,-0.0078472426351,-0.065730416875,0.989741050916,-0.122721970136,0.989741050916,-0.122721970136,-0.0078472426351,-0.065730416875
3900000000.0,-0.00828147987055,-0.0674248545797,0.989218652872,-0.125920161235,0.989218652872,-0.125920161235,-0.00828147987055,-0.0674248545797
4000000000.0,-0.00872669985654,-0.0691164273706,0.988682982618,-0.129115753719,0.988682982618,-0.129115753719,-0.00872669985654,-0.0691164273706
4100000000.0,-0.0091828806325,-0.0708050550481,0.988134059691,-0.13230867137,0.988134059691,-0.13230867137,-0.0091828806325,-0.0708050550481
4200000000.0,-0.00964999953604,-0.072490657451,0.987571904317,-0.135498837964,0.987571904317,-0.135498837964,-0.00964999953604,-0.072490657451
4300000000.0,-0.0101280332012,-0.0741731544702,0.986996537411,-0.138686177292,0.986996537411,-0.138686177292,-0.0101280332012,-0.0741731544702
4400000000.0,-0.0106169575571,-0.0758524660629,0.986407980576,-0.141870613166,0.986407980576,-0.141870613166,-0.0106169575571,-0.0758524660629
4500000000.0,-0.0111167478268,-0.0775285122659,0.985806256101,-0.145052069443,0.985806256101,-0.145052069443,-0.0111167478268,-0.0775285122659
4600000000.0,-0.0116273785267,-0.0792012132086,0.985191386966,-0.148230470034,0.985191386966,-0.148230470034,-0.0116273785267,-0.0792012132086
4700000000.0,-0.012148823466,-0.0808704891266,0.984563396832,-0.151405738917,0.984563396832,-0.151405738917,-0.012148823466,-0.0808704891266
4800000000.0,-0.0126810557467,-0.082536260374,0.98392231005,-0.154577800158,0.98392231005,-0.154577800158,-0.0126810557467,-0.082536260374
4900000000.0,-0.0132240477637,-0.0841984474365,0.983268151651,-0.157746577917,0.983268151651,-0.157746577917,-0.0132240477637,-0.0841984474365
5000000000.0,-0.0137777712051,-0.0858569709433,0.982600947349,-0.160911996465,0.982600947349,-0.160911996465,-0.0137777712051,-0.0858569709433
5100000000.0,-0.014342197053,-0.0875117516801,0.981920723541,-0.164073980198,0.981920723541,-0.164073980198,-0.014342197053,-0.0875117516801
5200000000.0,-0.0149172955845,-0.0891627106003,0.981227507298,-0.167232453647,0.981227507298,-0.167232453647,-0.0149172955845,-0.0891627106003
5300000000.0,-0.0155030363726,-0.0908097688376,0.980521326374,-0.170387341493,0.980521326374,-0.170387341493,-0.0155030363726,-0.0908097688376
5400000000.0,-0.0160993882878,-0.0924528477174,0.979802209195,-0.173538568579,0.979802209195,-0.173538568579,-0.0160993882878,-0.0924528477174
5500000000.0,-0.0167063194995,-0.0940918687684,0.979070184858,-0.176686059921,0.979070184858,-0.176686059921,-0.0167063194995,-0.0940918687684
5600000000.0,-0.0173237974782,-0.0957267537341,0.978325283135,-0.179829740723,0.978325283135,-0.179829740723,-0.0173237974782,-0.0957267537341
5700000000.0,-0.0179517889971,-0.0973574245838,0.977567534463,-0.182969536386,0.977567534463,-0.182969536386,-0.0179517889971,-0.0973574245838
5800000000.0,-0.0185902601344,-0.098983803524,0.976796969944,-0.186105372521,0.976796969944,-0.186105372521,-0.0185902601344,-0.098983803524
5900000000.0,-0.0192391762759,-0.100605813009,0.976013621344,-0.189237174959,0.976013621344,-0.189237174959,-0.0192391762759,-0.100605813009
6000000000.0,-0.0198985021176,-0.102223375752,0.975217521088,-0.192364869766,0.975217521088,-0.192364869766,-0.0198985021176,-0.102223375752
6100000000.0,-0.0205682016682,-0.103836414736,0.974408702257,-0.19548838325,0.974408702257,-0.19548838325,-0.0205682016682,-0.103836414736
6200000000.0,-0.0212482382526,-0.105444853222,0.973587198585,-0.198607641975,0.973587198585,-0.198607641975,-0.0212482382526,-0.105444853222
6300000000.0,-0.0219385745145,-0.107048614765,0.972753044455,-0.20172257277,0.972753044455,-0.20172257277,-0.0219385745145,-0.107048614765
6400000000.0,-0.02263917242,-0.108647623215,0.971906274897,-0.204833102741,0.971906274897,-0.204833102741,-0.02263917242,-0.108647623215
6500000000.0,-0.0233499932611,-0.110241802738,0.971046925584,-0.207939159279,0.971046925584,-0.207939159279,-0.0233499932611,-0.110241802738
6600000000.0,-0.0240709976593,-0.111831077816,0.970175032824,-0.211040670075,0.970175032824,-0.211040670075,-0.0240709976593,-0.111831077816
6700000000.0,-0.0248021455694,-0.113415373264,0.969290633562,-0.214137563124,0.969290633562,-0.214137563124,-0.0248021455694,-0.113415373264
6800000000.0,-0.0255433962835,-0.114994614234,0.968393765372,-0.21722976674,0.968393765372,-0.21722976674,-0.0255433962835,-0.114994614234
6900000000.0,-0.0262947084351,-0.116568726231,0.967484466455,-0.220317209566,0.967484466455,-0.220317209566,-0.0262947084351,-0.116568726231
7000000000.0,-0.0270560400034,-0.118137635115,0.966562775632,-0.223399820578,0.966562775632,-0.223399820578,-0.0270560400034,-0.118137635115
7100000000.0,-0.0278273483177,-0.119701267115,0.965628732341,-0.2264775291,0.965628732341,-0.2264775291,-0.0278273483177,-0.119701267115
7200000000.0,-0.0286085900618,-0.121259548837,0.964682376631,-0.229550264814,0.964682376631,-0.229550264814,-0.0286085900618,-0.121259548837
7300000000.0,-0.029399721279,-0.122812407274,0.963723749161,-0.232617957764,0.963723749161,-0.232617957764,-0.029399721279,-0.122812407274
7400000000.0,-0.0302006973766,-0.124359769812,0.96275289119,-0.23568053837,0.96275289119,-0.23568053837,-0.0302006973766,-0.124359769812
7500000000.0,-0.0310114731311,-0.12590156424,0.961769844574,-0.238737937432,0.961769844574,-0.238737937432,-0.0310114731311,-0.12590156424
7600000000.0,-0.0318320026932,-0.12743771876,0.960774651761,-0.241790086147,0.960774651761,-0.241790086147,-0.0318320026932,-0.12743771876
7700000000.0,-0.032662239593,-0.128968161994,0.959767355787,-0.244836916107,0.959767355787,-0.244836916107,-0.032662239593,-0.128968161994
7800000000.0,-0.0335021367452,-0.13049282299,0.958748000268,-0.247878359317,0.958748000268,-0.247878359317,-0.0335021367452,-0.13049282299
7900000000.0,-0.0343516464547,-0.132011631237,0.957716629395,-0.250914348196,0.957716629395,-0.250914348196,-0.0343516464547,-0.132011631237
8000000000.0,-0.0352107204224,-0.133524516666,0.95667328793,-0.253944815592,0.95667328793,-0.253944815592,-0.0352107204224,-0.133524516666
8100000000.0,-0.0360793097503,-0.135031409658,0.955618021197,-0.256969694784,0.955618021197,-0.256969694784,-0.0360793097503,-0.135031409658
8200000000.0,-0.0369573649477,-0.136532241059,0.954550875082,-0.259988919492,0.954550875082,-0.259988919492,-0.0369573649477,-0.136532241059
8300000000.0,-0.0378448359371,-0.138026942179,0.953471896019,-0.263002423886,0.953471896019,-0.263002423886,-0.0378448359371,-0.138026942179
8400000000.0,-0.0387416720599,-0.139515444805,0.952381130991,-0.266010142595,0.952381130991,-0.266010142595,-0.0387416720599,-0.139515444805
8500000000.0,-0.0396478220828,-0.140997681204,0.95127862752,-0.269012010708,0.95127862752,-0.269012010708,-0.0396478220828,-0.140997681204
8600000000.0,-0.040563234204,-0.142473584136,0.950164433661,-0.272007963787,0.950164433661,-0.272007963787,-0.040563234204,-0.142473584136
8700000000.0,-0.0414878560592,-0.143943086854,0.949038597997,-0.274997937875,0.949038597997,-0.274997937875,-0.0414878560592,-0.143943086854
8800000000.0,-0.0424216347282,-0.145406123116,0.947901169632,-0.277981869498,0.947901169632,-0.277981869498,-0.0424216347282,-0.145406123116
8900000000.0,-0.0433645167414,-0.146862627191,0.946752198183,-0.280959695676,0.946752198183,-0.280959695676,-0.0433645167414,-0.146862627191
9000000000.0,-0.0443164480863,-0.148312533864,0.945591733777,-0.283931353926,0.945591733777,-0.283931353926,-0.0443164480863,-0.148312533864
9100000000.0,-0.0452773742142,-0.149755778442,0.944419827038,-0.286896782273,0.944419827038,-0.286896782273,-0.0452773742142,-0.149755778442
9200000000.0,-0.0462472400466,-0.151192296763,0.943236529088,-0.289855919255,0.943236529088,-0.289855919255,-0.0462472400466,-0.151192296763
9300000000.0,-0.0472259899826,-0.152622025201,0.942041891534,-0.292808703925,0.942041891534,-0.292808703925,-0.0472259899826,-0.152622025201
9400000000.0,-0.0482135679055,-0.15404490067,0.940835966463,-0.295755075866,0.940835966463,-0.295755075866,-0.0482135679055,-0.15404490067
9500000000.0,-0.0492099171894,-0.155460860635,0.939618806438,-0.298694975186,0.939618806438,-0.298694975186,-0.0492099171894,-0.155460860635
9600000000.0,-0.0502149807067,-0.156869843111,0.938390464483,-0.301628342534,0.938390464483,-0.301628342534,-0.0502149807067,-0.156869843111
9700000000.0,-0.0512287008353,-0.158271786674,0.937150994086,-0.304555119098,0.937150994086,-0.304555119098,-0.0512287008353,-0.158271786674
9800000000.0,-0.0522510194653,-0.159666630464,0.935900449184,-0.307475246618,0.935900449184,-0.307475246618,-0.0522510194653,-0.159666630464
9900000000.0,-0.0532818780063,-0.161054314192,0.934638884159,-0.310388667382,0.934638884159,-0.310388667382,-0.0532818780063,-0.161054314192
10000000000.0,-0.054321217395,-0.162434778144,0.93336635383,-0.313295324241,0.93336635383,-0.313295324241,-0.054321217395,-0.162434778144
