freq (GHz),S11_real,S11_imag,S21_real,S21_imag,S12_real,S12_imag,S22_real,S22_imag
100000000.0,0.0031908704778,-0.00039404909655,0.996786873069,-0.00524289708068,0.996786873069,-0.00524289708068,0.0031908704778,-0.00039404909655
200000000.0,0.0032034134608,-0.000788248560514,0.996721264064,-0.0104854457281,0.996721264064,-0.0104854457281,0.0032034134608,-0.000788248560514
300000000.0,0.0032062667551,-0.00118248159131,0.996633535898,-0.0157275988057,0.996633535898,-0.0157275988057,0.0032062667551,-0.00118248159131
400000000.0,0.00320219303418,-0.00157668337164,0.996520927554,-0.0209692508627,0.996520927554,-0.0209692508627,0.00320219303418,-0.00157668337164
500000000.0,0.00319225574943,-0.00197080058031,0.996382378187,-0.026210281776,0.996382378187,-0.026210281776,0.00319225574943,-0.00197080058031
600000000.0,0.00317699742836,-0.00236478475593,0.996217348857,-0.0314505644972,0.996217348857,-0.0314505644972,0.00317699742836,-0.00236478475593
700000000.0,0.0031567390522,-0.00275858997366,0.996025523179,-0.0366899679451,0.996025523179,-0.0366899679451,0.0031567390522,-0.00275858997366
800000000.0,0.00313168926475,-0.00315217179646,0.995806698128,-0.0419283583976,0.995806698128,-0.0419283583976,0.00313168926475,-0.00315217179646
900000000.0,0.00310199297444,-0.00354548672786,0.995560735462,-0.0471656002674,0.995560735462,-0.0471656002674,0.00310199297444,-0.00354548672786
1000000000.0,0.00306775597837,-0.00393849189856,0.995287537107,-0.0524015565782,0.995287537107,-0.0524015565782,0.00306775597837,-0.00393849189856
1100000000.0,0.00302905864438,-0.00433114487439,0.994987031494,-0.0576360892783,0.994987031494,-0.0576360892783,0.00302905864438,-0.00433114487439
1200000000.0,0.00298596406062,-0.00472340353303,0.994659165413,-0.0628690594596,0.994659165413,-0.0628690594596,0.00298596406062,-0.00472340353303
1300000000.0,0.00293852316077,-0.00511522598203,0.994303898907,-0.068100327515,0.994303898907,-0.068100327515,0.00293852316077,-0.00511522598203
1400000000.0,0.00288677809171,-0.0055065705027,0.993921201906,-0.0733297532581,0.993921201906,-0.0733297532581,0.00288677809171,-0.0055065705027
1500000000.0,0.0028307645076,-0.0058973955113,0.993511051945,-0.0785571960152,0.993511051945,-0.0785571960152,0.00283076450761,-0.0058973955113
1600000000.0,0.00277051318068,-0.00628765953161,0.99307343256,-0.0837825146979,0.99307343256,-0.0837825146979,0.00277051318068,-0.00628765953161
1700000000.0,0.00270605116177,-0.00667732117581,0.992608332135,-0.0890055678624,0.992608332135,-0.0890055678624,0.00270605116177,-0.00667732117581
1800000000.0,0.00263740263523,-0.0070663391309,0.992115743051,-0.0942262137586,0.992115743051,-0.0942262137586,0.00263740263523,-0.0070663391309
1900000000.0,0.00256458956105,-0.00745467214954,0.991595661052,-0.0994443103706,0.991595661052,-0.0994443103706,0.00256458956105,-0.00745467214954
2000000000.0,0.00248763216542,-0.00784227904384,0.991048084757,-0.104659715452,0.991048084757,-0.104659715452,0.00248763216541,-0.00784227904384
2100000000.0,0.00240654932113,-0.00822911868161,0.990473015287,-0.109872286556,0.990473015287,-0.109872286556,0.00240654932113,-0.00822911868161
2200000000.0,0.00232135884666,-0.00861514998435,0.989870455969,-0.115081881061,0.989870455969,-0.115081881061,0.00232135884666,-0.00861514998435
2300000000.0,0.00223207774407,-0.00900033192667,0.989240412103,-0.120288356195,0.989240412103,-0.120288356195,0.00223207774407,-0.00900033192667
2400000000.0,0.00213872239038,-0.00938462353673,0.988582890772,-0.125491569056,0.988582890772,-0.125491569056,0.00213872239038,-0.00938462353673
2500000000.0,0.00204130869297,-0.00976798389759,0.987897900692,-0.130691376631,0.987897900692,-0.130691376631,0.00204130869297,-0.00976798389759
2600000000.0,0.00193985221697,-0.0101503721492,0.987185452087,-0.135887635812,0.987185452087,-0.135887635812,0.00193985221697,-0.0101503721492
2700000000.0,0.0018343682905,-0.010531747491,0.986445556588,-0.141080203411,0.986445556588,-0.141080203411,0.0018343682905,-0.010531747491
2800000000.0,0.00172487209222,-0.010912069185,0.985678227145,-0.146268936178,0.985678227145,-0.146268936178,0.00172487209222,-0.010912069185
2900000000.0,0.00161137872482,-0.0112912965587,0.984883477957,-0.15145369081,0.984883477957,-0.15145369081,0.00161137872482,-0.0112912965587
3000000000.0,0.00149390327684,-0.0116693890094,0.984061324414,-0.156634323966,0.984061324414,-0.156634323966,0.00149390327684,-0.0116693890094
3100000000.0,0.00137246087522,-0.0120463060077,0.983211783044,-0.161810692279,0.983211783044,-0.161810692279,0.00137246087522,-0.0120463060077
3200000000.0,0.00124706673001,-0.0124220071013,0.982334871472,-0.166982652365,0.982334871472,-0.166982652365,0.00124706673001,-0.0124220071013
3300000000.0,0.00111773617273,-0.0127964519201,0.98143060838,-0.172150060833,0.98143060838,-0.172150060833,0.00111773617273,-0.0127964519201
3400000000.0,0.000984484689305,-0.0131696001797,0.980499013478,-0.177312774299,0.980499013478,-0.177312774299,0.000984484689305,-0.0131696001797
3500000000.0,0.000847327948551,-0.0135414116863,0.979540107476,-0.182470649392,0.979540107476,-0.182470649392,0.000847327948551,-0.0135414116863
3600000000.0,0.00070628182683,-0.0139118463412,0.978553912059,-0.187623542764,0.978553912059,-0.187623542764,0.00070628182683,-0.0139118463412
3700000000.0,0.000561362429485,-0.0142808641456,0.977540449868,-0.192771311097,0.977540449868,-0.192771311097,0.000561362429486,-0.0142808641456
3800000000.0,0.000412586109532,-0.0146484252052,0.976499744479,-0.197913811116,0.976499744479,-0.197913811116,0.000412586109532,-0.0146484252052
3900000000.0,0.000259969483961,-0.0150144897349,0.975431820391,-0.203050899593,0.975431820391,-0.203050899593,0.000259969483961,-0.0150144897349
4000000000.0,0.000103529448031,-0.0153790180638,0.974336703009,-0.208182433355,0.974336703009,-0.208182433355,0.000103529448031,-0.0153790180638
4100000000.0,-5.67168122225e-05,-0.0157419706398,0.97321441863,-0.213308269296,0.97321441863,-0.213308269296,-5.67168122226e-05,-0.0157419706398
4200000000.0,-0.000220751809007,-0.0161033080348,0.972064994437,-0.218428264379,0.972064994437,-0.218428264379,-0.000220751809007,-0.0161033080348
4300000000.0,-0.000388557743128,-0.0164629909493,0.970888458484,-0.223542275646,0.970888458484,-0.223542275646,-0.000388557743128,-0.0164629909493
4400000000.0,-0.000560116495536,-0.0168209802177,0.96968483969,-0.228650160225,0.96968483969,-0.228650160225,-0.000560116495536,-0.0168209802177
4500000000.0,-0.000735409619886,-0.0171772368126,0.968454167831,-0.233751775339,0.968454167831,-0.233751775339,-0.000735409619886,-0.0171772368126
4600000000.0,-0.000914418336041,-0.0175317218504,0.967196473529,-0.238846978306,0.967196473529,-0.238846978306,-0.000914418336041,-0.0175317218504
4700000000.0,-0.00109712352436,-0.0178843965959,0.96591178825,-0.243935626555,0.96591178825,-0.243935626555,-0.00109712352436,-0.0178843965959
4800000000.0,-0.00128350572074,-0.0182352224672,0.964600144297,-0.249017577626,0.964600144297,-0.249017577626,-0.00128350572074,-0.0182352224672
4900000000.0,-0.00147354511228,-0.0185841610408,0.963261574801,-0.254092689178,0.963261574801,-0.254092689178,-0.00147354511227,-0.0185841610408
5000000000.0,-0.00166722153352,-0.0189311740565,0.961896113721,-0.259160818996,0.961896113721,-0.259160818996,-0.00166722153352,-0.0189311740565
5100000000.0,-0.00186451446328,-0.0192762234223,0.960503795835,-0.264221825,0.960503795835,-0.264221825,-0.00186451446328,-0.0192762234223
5200000000.0,-0.00206540302184,-0.0196192712192,0.95908465674,-0.269275565243,0.95908465674,-0.269275565243,-0.00206540302184,-0.0196192712192
5300000000.0,-0.00226986596866,-0.0199602797065,0.957638732842,-0.274321897927,0.957638732842,-0.274321897927,-0.00226986596866,-0.0199602797065
5400000000.0,-0.00247788170046,-0.0202992113261,0.956166061358,-0.279360681403,0.956166061358,-0.279360681403,-0.00247788170046,-0.0202992113261
5500000000.0,-0.00268942824961,-0.0206360287081,0.95466668031,-0.284391774177,0.95466668031,-0.284391774177,-0.00268942824961,-0.0206360287081
5600000000.0,-0.00290448328294,-0.020970694675,0.953140628522,-0.28941503492,0.953140628522,-0.28941503492,-0.00290448328294,-0.020970694675
5700000000.0,-0.00312302410073,-0.0213031722469,0.951587945617,-0.29443032247,0.951587945617,-0.29443032247,-0.00312302410073,-0.0213031722469
5800000000.0,-0.00334502763611,-0.0216334246466,0.950008672011,-0.299437495837,0.950008672011,-0.299437495837,-0.00334502763611,-0.0216334246466
5900000000.0,-0.00357047045456,-0.0219614153037,0.948402848916,-0.304436414213,0.948402848916,-0.304436414213,-0.00357047045456,-0.0219614153037
6000000000.0,-0.00379932875382,-0.0222871078601,0.946770518333,-0.309426936976,0.946770518333,-0.309426936976,-0.00379932875382,-0.0222871078601
6100000000.0,-0.00403157836387,-0.0226104661745,0.94511172305,-0.314408923691,0.94511172305,-0.314408923691,-0.00403157836387,-0.0226104661745
6200000000.0,-0.00426719474721,-0.022931454327,0.94342650664,-0.319382234125,0.94342650664,-0.319382234125,-0.00426719474721,-0.022931454327
6300000000.0,-0.00450615299925,-0.0232500366242,0.941714913458,-0.324346728242,0.941714913458,-0.324346728242,-0.00450615299925,-0.0232500366242
6400000000.0,-0.00474842784901,-0.0235661776036,0.93997698864,-0.329302266216,0.93997698864,-0.329302266216,-0.00474842784901,-0.0235661776036
6500000000.0,-0.00499399365981,-0.0238798420385,0.938212778098,-0.334248708433,0.938212778098,-0.334248708433,-0.00499399365981,-0.0238798420385
6600000000.0,-0.00524282443029,-0.0241909949426,0.93642232852,-0.339185915497,0.93642232852,-0.339185915497,-0.00524282443029,-0.0241909949426
6700000000.0,-0.00549489379546,-0.0244996015746,0.934605687368,-0.344113748236,0.934605687368,-0.344113748236,-0.00549489379546,-0.0244996015746
6800000000.0,-0.00575017502795,-0.0248056274429,0.932762902872,-0.349032067707,0.932762902872,-0.349032067707,-0.00575017502795,-0.0248056274429
6900000000.0,-0.00600864103939,-0.0251090383101,0.930894024033,-0.3539407352,0.930894024033,-0.3539407352,-0.00600864103939,-0.0251090383101
7000000000.0,-0.00627026438188,-0.0254098001975,0.928999100617,-0.358839612245,0.928999100617,-0.358839612245,-0.00627026438188,-0.0254098001975
7100000000.0,-0.00653501724966,-0.0257078793899,0.927078183156,-0.363728560617,0.927078183156,-0.363728560617,-0.00653501724966,-0.0257078793899
7200000000.0,-0.0068028714808,-0.0260032424399,0.92513132294,-0.368607442338,0.92513132294,-0.368607442338,-0.0068028714808,-0.0260032424399
7300000000.0,-0.00707379855906,-0.0262958561724,0.923158572022,-0.373476119687,0.923158572022,-0.373476119687,-0.00707379855906,-0.0262958561724
7400000000.0,-0.00734776961587,-0.026585687689,0.921159983212,-0.378334455201,0.921159983212,-0.378334455201,-0.00734776961587,-0.026585687689
7500000000.0,-0.00762475543236,-0.0268727043725,0.919135610075,-0.383182311683,0.919135610075,-0.383182311683,-0.00762475543236,-0.0268727043725
7600000000.0,-0.00790472644152,-0.0271568738912,0.917085506929,-0.388019552206,0.917085506929,-0.388019552206,-0.00790472644152,-0.0271568738912
7700000000.0,-0.00818765273046,-0.0274381642033,0.915009728845,-0.392846040114,0.915009728845,-0.392846040114,-0.00818765273046,-0.0274381642033
7800000000.0,-0.00847350404276,-0.0277165435614,0.912908331639,-0.397661639035,0.912908331639,-0.397661639035,-0.00847350404276,-0.0277165435614
7900000000.0,-0.00876224978087,-0.0279919805162,0.910781371878,-0.402466212879,0.910781371878,-0.402466212879,-0.00876224978087,-0.0279919805162
8000000000.0,-0.00905385900866,-0.0282644439214,0.908628906872,-0.407259625844,0.908628906872,-0.407259625844,-0.00905385900866,-0.0282644439214
8100000000.0,-0.009348300454,-0.0285339029376,0.906450994673,-0.412041742425,0.906450994673,-0.412041742425,-0.009348300454,-0.0285339029376
8200000000.0,-0.00964554251143,-0.0288003270363,0.904247694072,-0.416812427413,0.904247694072,-0.416812427413,-0.00964554251143,-0.0288003270363
8300000000.0,-0.00994555324495,-0.0290636860044,0.902019064601,-0.421571545905,0.902019064601,-0.421571545905,-0.00994555324495,-0.0290636860044
8400000000.0,-0.0102483003908,-0.0293239499482,0.899765166526,-0.426318963303,0.899765166526,-0.426318963303,-0.0102483003908,-0.0293239499482
8500000000.0,-0.0105537513604,-0.0295810892973,0.897486060846,-0.431054545324,0.897486060846,-0.431054545324,-0.0105537513604,-0.0295810892973
8600000000.0,-0.0108618732434,-0.0298350748086,0.895181809291,-0.435778158002,0.895181809291,-0.435778158002,-0.0108618732434,-0.0298350748086
8700000000.0,-0.0111726328105,-0.0300858775706,0.892852474322,-0.440489667694,0.892852474322,-0.440489667694,-0.0111726328105,-0.0300858775706
8800000000.0,-0.0114859965169,-0.030333469007,0.890498119124,-0.445188941082,0.890498119124,-0.445188941082,-0.0114859965169,-0.030333469007
8900000000.0,-0.011801930505,-0.0305778208808,0.888118807608,-0.44987584518,0.888118807608,-0.44987584518,-0.011801930505,-0.0305778208808
9000000000.0,-0.0121204006082,-0.0308189052981,0.885714604406,-0.454550247338,0.885714604406,-0.454550247338,-0.0121204006082,-0.0308189052981
9100000000.0,-0.0124413723538,-0.031056694712,0.88328557487,-0.459212015246,0.88328557487,-0.459212015246,-0.0124413723538,-0.031056694712
9200000000.0,-0.0127648109667,-0.0312911619261,0.880831785068,-0.463861016938,0.880831785068,-0.463861016938,-0.0127648109667,-0.0312911619261
9300000000.0,-0.0130906813723,-0.0315222800986,0.878353301784,-0.468497120799,0.878353301784,-0.468497120799,-0.0130906813723,-0.0315222800986
9400000000.0,-0.0134189482005,-0.0317500227459,0.875850192513,-0.473120195564,0.875850192513,-0.473120195564,-0.0134189482005,-0.0317500227459
9500000000.0,-0.0137495757892,-0.031974363746,0.873322525461,-0.47773011033,0.873322525461,-0.47773011033,-0.0137495757892,-0.031974363746
9600000000.0,-0.0140825281876,-0.0321952773425,0.87077036954,-0.482326734553,0.87077036954,-0.482326734553,-0.0140825281876,-0.0321952773425
9700000000.0,-0.01441776916,-0.0324127381478,0.868193794368,-0.486909938056,0.868193794368,-0.486909938056,-0.01441776916,-0.0324127381478
9800000000.0,-0.0147552621895,-0.0326267211469,0.865592870264,-0.491479591034,0.865592870264,-0.491479591034,-0.0147552621895,-0.0326267211469
9900000000.0,-0.015094970482,-0.0328372017006,0.862967668248,-0.496035564055,0.862967668248,-0.496035564055,-0.015094970482,-0.0328372017006
10000000000.0,-0.0154368569696,-0.0330441555493,0.860318260035,-0.500577728068,0.860318260035,-0.500577728068,-0.0154368569696,-0.0330441555493
