freq (GHz),S11_real,S11_imag,S21_real,S21_imag,S12_real,S12_imag,S22_real,S22_imag
100000000.0,-0.00807933627499,-0.089062152924,0.991854190776,-0.0893460574344,0.991854190776,-0.0893460574344,-0.00807933627499,-0.089062152924
200000000.0,-0.0314709486801,-0.173893289234,0.968462002102,-0.17446119944,0.968462002102,-0.17446119944,-0.0314709486801,-0.173893289234
300000000.0,-0.0680355879181,-0.250939180525,0.931896818994,-0.251791252185,0.931896818994,-0.251791252185,-0.0680355879181,-0.250939180525
400000000.0,-0.114777763314,-0.317726400583,0.885154074825,-0.318862831935,0.885154074825,-0.318862831935,-0.114777763314,-0.317726400583
500000000.0,-0.168367180436,-0.373011406254,0.831564041914,-0.374432431531,0.831564041914,-0.374432431531,-0.168367180436,-0.373011406254
600000000.0,-0.225629609401,-0.416665052545,0.77430093878,-0.418370937472,0.77430093878,-0.418370937472,-0.225629609401,-0.416665052545
700000000.0,-0.283873530337,-0.449395915273,0.716056278475,-0.451386953587,0.716056278475,-0.451386953587,-0.283873530337,-0.449395915273
800000000.0,-0.341034871977,-0.472428581839,0.658894127743,-0.474705092451,0.658894127743,-0.474705092451,-0.341034871977,-0.472428581839
900000000.0,-0.395678810843,-0.487219847107,0.604249306827,-0.48978217169,0.604249306827,-0.48978217169,-0.395678810843,-0.487219847107
1000000000.0,-0.446916578926,-0.495250591529,0.553010581295,-0.49809909243,0.553010581295,-0.49809909243,-0.446916578926,-0.495250591529
1100000000.0,-0.494288081172,-0.497896492512,0.505638044265,-0.50103155091,0.505638044265,-0.50103155091,-0.494288081172,-0.497896492512
1200000000.0,-0.537643939762,-0.496362738417,0.462281071964,-0.499784752687,0.462281071964,-0.499784752687,-0.537643939762,-0.496362738417
1300000000.0,-0.577044132839,-0.491662988645,0.422879684898,-0.495372372887,0.422879684898,-0.495372372887,-0.577044132839,-0.491662988645
1400000000.0,-0.612678891929,-0.484624978919,0.387243650365,-0.488622161634,0.387243650365,-0.488622161634,-0.612678891929,-0.484624978919
1500000000.0,-0.644811090797,-0.475909787041,0.355110093545,-0.480195209933,0.355110093545,-0.480195209933,-0.644811090797,-0.475909787041
1600000000.0,-0.673736580832,-0.466036331628,0.326183162095,-0.470610448519,0.326183162095,-0.470610448519,-0.673736580832,-0.466036331628
1700000000.0,-0.699758283081,-0.455406216316,0.300159934086,-0.460269492159,0.300159934086,-0.460269492159,-0.699758283081,-0.455406216316
1800000000.0,-0.723170225397,-0.444326434859,0.276746380837,-0.449479344845,0.276746380837,-0.449479344845,-0.723170225397,-0.444326434859
1900000000.0,-0.744248453158,-0.433028929883,0.25566645619,-0.438471958632,0.25566645619,-0.438471958632,-0.744248453158,-0.433028929883
2000000000.0,-0.763246509532,-0.42168682654,0.236666616229,-0.427420467366,0.236666616229,-0.427420467366,-0.763246509532,-0.42168682654
2100000000.0,-0.780393838498,-0.410427577741,0.219517416256,-0.416452331989,0.219517416256,-0.416452331989,-0.780393838498,-0.410427577741
2200000000.0,-0.79589597524,-0.399343429765,0.204013320393,-0.405659806209,0.204013320393,-0.405659806209,-0.79589597524,-0.399343429765
2300000000.0,-0.809935764147,-0.388499656284,0.189971483571,-0.395108170589,0.189971483571,-0.395108170589,-0.809935764147,-0.388499656284
2400000000.0,-0.822675109954,-0.377940982356,0.177230000392,-0.384842156593,0.177230000392,-0.384842156593,-0.822675109954,-0.377940982356
2500000000.0,-0.834256949582,-0.367696566003,0.165645933284,-0.374890928217,0.165645933284,-0.374890928217,-0.834256949582,-0.367696566003
2600000000.0,-0.844807254324,-0.357783844114,0.155093310315,-0.365271927936,0.155093310315,-0.365271927936,-0.844807254324,-0.357783844114
2700000000.0,-0.854436952156,-0.348211491537,0.145461202871,-0.355993835844,0.145461202871,-0.355993835844,-0.854436952156,-0.348211491537
2800000000.0,-0.863243711506,-0.338981691632,0.136651941901,-0.347058840247,0.136651941901,-0.347058840247,-0.863243711506,-0.338981691632
2900000000.0,-0.871313560151,-0.330091874285,0.128579499002,-0.33846437571,0.128579499002,-0.33846437571,-0.871313560151,-0.330091874285
3000000000.0,-0.878722332641,-0.321536043099,0.121168039006,-0.330204450291,0.121168039006,-0.330204450291,-0.878722332641,-0.321536043099
3100000000.0,-0.885536951103,-0.313305786214,0.114350639171,-0.322270656388,0.114350639171,-0.322270656388,-0.885536951103,-0.313305786214
3200000000.0,-0.891816550509,-0.305391043754,0.108068163909,-0.314652938218,0.108068163909,-0.314652938218,-0.891816550509,-0.305391043754
3300000000.0,-0.897613462443,-0.297780688223,0.102268281024,-0.307340172239,0.102268281024,-0.307340172239,-0.897613462443,-0.297780688223
3400000000.0,-0.902974072299,-0.290462961204,0.0969046045072,-0.300320603877,0.0969046045072,-0.300320603877,-0.902974072299,-0.290462961204
3500000000.0,-0.907939564625,-0.283425799761,0.0919359491973,-0.29358217395,0.0919359491973,-0.29358217395,-0.907939564625,-0.283425799761
3600000000.0,-0.91254657042,-0.276657078227,0.0873256834808,-0.287112760481,0.0873256834808,-0.287112760481,-0.91254657042,-0.276657078227
3700000000.0,-0.916827728983,-0.270144785172,0.0830411674429,-0.280900355681,0.0830411674429,-0.280900355681,-0.916827728983,-0.270144785172
3800000000.0,-0.920812175594,-0.26387715077,0.0790532651838,-0.274933193336,0.0790532651838,-0.274933193336,-0.920812175594,-0.26387715077
3900000000.0,-0.924525964998,-0.2578427363,0.0753359213389,-0.26919983833,0.0753359213389,-0.26919983833,-0.924525964998,-0.2578427363
4000000000.0,-0.927992439393,-0.252030494836,0.0718657930844,-0.263689247345,0.0718657930844,-0.263689247345,-0.927992439393,-0.252030494836
4100000000.0,-0.931232548525,-0.246429810086,0.0686219300476,-0.258390807715,0.0686219300476,-0.258390807715,-0.931232548525,-0.246429810086
4200000000.0,-0.934265128427,-0.241030518751,0.0655854955646,-0.253294359801,0.0655854955646,-0.253294359801,-0.934265128427,-0.241030518751
4300000000.0,-0.93710714447,-0.235822920561,0.0627395236262,-0.248390207037,0.0627395236262,-0.248390207037,-0.93710714447,-0.235822920561
4400000000.0,-0.939773903603,-0.230797779157,0.0600687066428,-0.243669116825,0.0600687066428,-0.243669116825,-0.939773903603,-0.230797779157
4500000000.0,-0.942279239953,-0.2259463163,0.057559209843,-0.239122314746,0.057559209843,-0.239122314746,-0.942279239953,-0.2259463163
4600000000.0,-0.944635677383,-0.221260201258,0.0551985087097,-0.234741473972,0.0551985087097,-0.234741473972,-0.944635677383,-0.221260201258
4700000000.0,-0.946854572114,-0.216731536857,0.0529752463646,-0.230518701306,0.0529752463646,-0.230518701306,-0.946854572114,-0.216731536857
4800000000.0,-0.948946238039,-0.212352843256,0.0508791082511,-0.226446520982,0.0508791082511,-0.226446520982,-0.948946238039,-0.212352843256
4900000000.0,-0.950920057023,-0.208117040323,0.0489007118324,-0.222517857035,0.0489007118324,-0.222517857035,-0.950920057023,-0.208117040323
5000000000.0,-0.95278457615,-0.204017429218,0.0470315093467,-0.218726014897,0.0470315093467,-0.218726014897,-0.95278457615,-0.204017429218
5100000000.0,-0.954547593597,-0.20004767367,0.045263701931,-0.215064662678,0.045263701931,-0.215064662678,-0.954547593597,-0.20004767367
5200000000.0,-0.956216234598,-0.196201781303,0.0435901636583,-0.211527812495,0.0435901636583,-0.211527812495,-0.956216234598,-0.196201781303
5300000000.0,-0.957797018745,-0.192474085259,0.0420043742338,-0.208109802104,0.0420043742338,-0.208109802104,-0.957797018745,-0.192474085259
5400000000.0,-0.95929591972,-0.188859226307,0.0405003592661,-0.204805277006,0.0405003592661,-0.204805277006,-0.95929591972,-0.188859226307
5500000000.0,-0.960718418384,-0.185352135563,0.0390726371747,-0.201609173181,0.0390726371747,-0.201609173181,-0.960718418384,-0.185352135563
5600000000.0,-0.962069550045,-0.181948017915,0.0377161719228,-0.198516700503,0.0377161719228,-0.198516700503,-0.962069550045,-0.181948017915
5700000000.0,-0.963353946608,-0.178642336185,0.0364263308682,-0.195523326916,0.0364263308682,-0.195523326916,-0.963353946608,-0.178642336185
5800000000.0,-0.964575874214,-0.175430796077,0.0351988471223,-0.192624763381,0.0351988471223,-0.192624763381,-0.964575874214,-0.175430796077
5900000000.0,-0.965739266907,-0.172309331905,0.0340297858821,-0.189816949602,0.0340297858821,-0.189816949602,-0.965739266907,-0.172309331905
6000000000.0,-0.966847756793,-0.169274093099,0.0329155142729,-0.187096040541,0.0329155142729,-0.187096040541,-0.966847756793,-0.169274093099
6100000000.0,-0.967904701095,-0.166321431473,0.0318526742935,-0.184458393685,0.0318526742935,-0.184458393685,-0.967904701095,-0.166321431473
6200000000.0,-0.968913206453,-0.16344788924,0.0308381585122,-0.181900557057,0.0308381585122,-0.181900557057,-0.968913206453,-0.16344788924
6300000000.0,-0.969876150792,-0.160650187729,0.0298690882021,-0.179419257945,0.0298690882021,-0.179419257945,-0.969876150792,-0.160650187729
6400000000.0,-0.970796203018,-0.157925216793,0.0289427936433,-0.177011392303,0.0289427936433,-0.177011392303,-0.970796203018,-0.157925216793
6500000000.0,-0.971675840786,-0.155270024865,0.0280567963538,-0.174674014808,0.0280567963538,-0.174674014808,-0.971675840786,-0.155270024865
6600000000.0,-0.972517366552,-0.15268180962,0.0272087930387,-0.172404329532,0.0272087930387,-0.172404329532,-0.972517366552,-0.15268180962
6700000000.0,-0.973322922091,-0.150157909236,0.026396641073,-0.170199681189,0.026396641073,-0.170199681189,-0.973322922091,-0.150157909236
6800000000.0,-0.97409450164,-0.14769579419,0.0256183453534,-0.168057546945,0.0256183453534,-0.168057546945,-0.97409450164,-0.14769579419
6900000000.0,-0.974833963824,-0.145293059572,0.0248720463778,-0.165975528728,0.0248720463778,-0.165975528728,-0.974833963824,-0.145293059572
7000000000.0,-0.975543042474,-0.142947417892,0.0241560094212,-0.163951346031,0.0241560094212,-0.163951346031,-0.975543042474,-0.142947417892
7100000000.0,-0.976223356472,-0.140656692335,0.0234686146985,-0.161982829173,0.0234686146985,-0.161982829173,-0.976223356472,-0.140656692335
7200000000.0,-0.976876418692,-0.138418810441,0.0228083484115,-0.160067912979,0.0228083484115,-0.160067912979,-0.976876418692,-0.138418810441
7300000000.0,-0.977503644169,-0.136231798187,0.0221737945925,-0.158204630859,0.0221737945925,-0.158204630859,-0.977503644169,-0.136231798187
7400000000.0,-0.978106357528,-0.134093774441,0.0215636276652,-0.156391109266,0.0215636276652,-0.156391109266,-0.978106357528,-0.134093774441
7500000000.0,-0.978685799782,-0.132002945765,0.0209766056512,-0.154625562495,0.0209766056512,-0.154625562495,-0.978685799782,-0.132002945765
7600000000.0,-0.979243134537,-0.129957601539,0.0204115639612,-0.152906287815,0.0204115639612,-0.152906287815,-0.979243134537,-0.129957601539
7700000000.0,-0.97977945368,-0.127956109398,0.0198674097124,-0.151231660894,0.0198674097124,-0.151231660894,-0.97977945368,-0.127956109398
7800000000.0,-0.980295782575,-0.125996910941,0.0193431165249,-0.149600131519,0.0193431165249,-0.149600131519,-0.980295782575,-0.125996910941
7900000000.0,-0.980793084843,-0.124078517714,0.0188377197484,-0.148010219578,0.0188377197484,-0.148010219578,-0.980793084843,-0.124078517714
8000000000.0,-0.981272266734,-0.12219950744,0.0183503120829,-0.146460511283,0.0183503120829,-0.146460511283,-0.981272266734,-0.12219950744
8100000000.0,-0.981734181158,-0.120358520472,0.0178800395541,-0.14494965563,0.0178800395541,-0.14494965563,-0.981734181158,-0.120358520472
8200000000.0,-0.982179631381,-0.118554256472,0.0174260978128,-0.143476361075,0.0174260978128,-0.143476361075,-0.982179631381,-0.118554256472
8300000000.0,-0.982609374431,-0.116785471281,0.0169877287287,-0.14203939241,0.0169877287287,-0.14203939241,-0.982609374431,-0.116785471281
8400000000.0,-0.983024124238,-0.115050973988,0.0165642172518,-0.140637567822,0.0165642172518,-0.140637567822,-0.983024124238,-0.115050973988
8500000000.0,-0.983424554527,-0.113349624165,0.0161548885189,-0.139269756138,0.0161548885189,-0.139269756138,-0.983424554527,-0.113349624165
8600000000.0,-0.983811301487,-0.111680329269,0.015759105182,-0.137934874221,0.015759105182,-0.137934874221,-0.983811301487,-0.111680329269
8700000000.0,-0.98418496624,-0.1100420422,0.0153762649416,-0.136631884534,0.0153762649416,-0.136631884534,-0.98418496624,-0.1100420422
8800000000.0,-0.984546117121,-0.108433759002,0.0150057982655,-0.135359792835,0.0150057982655,-0.135359792835,-0.984546117121,-0.108433759002
8900000000.0,-0.984895291788,-0.106854516691,0.0146471662778,-0.134117646011,0.0146471662778,-0.134117646011,-0.984895291788,-0.106854516691
9000000000.0,-0.985232999175,-0.105303391217,0.0142998588048,-0.132904530039,0.0142998588048,-0.132904530039,-0.985232999175,-0.105303391217
9100000000.0,-0.985559721306,-0.103779495541,0.0139633925633,-0.131719568061,0.0139633925633,-0.131719568061,-0.985559721306,-0.103779495541
9200000000.0,-0.985875914972,-0.102281977816,0.0136373094802,-0.130561918568,0.0136373094802,-0.130561918568,-0.985875914972,-0.102281977816
9300000000.0,-0.986182013293,-0.100810019681,0.0133211751335,-0.129430773694,0.0133211751335,-0.129430773694,-0.986182013293,-0.100810019681
9400000000.0,-0.986478427161,-0.0993628346383,0.0130145773032,-0.128325357597,0.0130145773032,-0.128325357597,-0.986478427161,-0.0993628346383
9500000000.0,-0.986765546595,-0.0979396665356,0.0127171246249,-0.127244924935,0.0127171246249,-0.127244924935,-0.986765546595,-0.0979396665356
9600000000.0,-0.987043741983,-0.0965397881201,0.0124284453365,-0.126188759428,0.0124284453365,-0.126188759428,-0.987043741983,-0.0965397881201
9700000000.0,-0.987313365257,-0.0951624996784,0.0121481861124,-0.125156172494,0.0121481861124,-0.125156172494,-0.987313365257,-0.0951624996784
9800000000.0,-0.987574750973,-0.0938071277494,0.0118760109767,-0.124146501965,0.0118760109767,-0.124146501965,-0.987574750973,-0.0938071277494
9900000000.0,-0.987828217328,-0.0924730239064,0.0116116002903,-0.12315911087,0.0116116002903,-0.12315911087,-0.987828217328,-0.0924730239064
10000000000.0,-0.988074067099,-0.0911595636054,0.0113546498061,-0.122193386284,0.0113546498061,-0.122193386284,-0.988074067099,-0.0911595636054
