freq (GHz),S11_real,S11_imag,S21_real,S21_imag,S12_real,S12_imag,S22_real,S22_imag
100000000.0,0.0059528577415,0.00178670728109,0.994037356089,-0.0051396107114,0.994037356089,-0.0051396107114,0.0059528577415,0.00178670728109
200000000.0,0.00601851910335,0.003572671441,0.993951643493,-0.0102784781114,0.993951643493,-0.0102784781114,0.00601851910335,0.003572671441
300000000.0,0.00609226143457,0.0053579076577,0.99384658385,-0.015416619671,0.99384658385,-0.015416619671,0.00609226143457,0.0053579076577
400000000.0,0.00617921107096,0.00714228804223,0.993717049545,-0.0205539052555,0.993717049545,-0.0205539052555,0.00617921107096,0.00714228804223
500000000.0,0.00628133503334,0.00892565176427,0.993561072003,-0.0256901694913,0.993561072003,-0.0256901694913,0.00628133503334,0.00892565176427
600000000.0,0.00639962924064,0.0107078236019,0.993377653487,-0.030825231102,0.993377653487,-0.030825231102,0.00639962924064,0.0107078236019
700000000.0,0.00653467467056,0.0124886206006,0.993166210939,-0.0359588999683,0.993166210939,-0.0359588999683,0.00653467467056,0.0124886206006
800000000.0,0.00668684029699,0.0142678551668,0.992926373054,-0.0410909804605,0.992926373054,-0.0410909804605,0.00668684029699,0.0142678551668
900000000.0,0.00685637342709,0.0160453367377,0.992657889951,-0.0462212732658,0.992657889951,-0.0462212732658,0.00685637342709,0.0160453367377
1000000000.0,0.00704344548064,0.0178208727785,0.992360587395,-0.0513495764957,0.992360587395,-0.0513495764957,0.00704344548064,0.0178208727785
1100000000.0,0.00724817743252,0.019594269425,0.992034341362,-0.0564756864087,0.992034341362,-0.0564756864087,0.00724817743252,0.019594269425
1200000000.0,0.00747065497049,0.0213653319212,0.991679062888,-0.0615993979108,0.991679062888,-0.0615993979108,0.00747065497049,0.0213653319212
1300000000.0,0.0077109380306,0.0231338649346,0.991294688536,-0.066720504917,0.991294688536,-0.066720504917,0.0077109380306,0.0231338649346
1400000000.0,0.00796906706487,0.0248996727896,0.990881174131,-0.0718388006246,0.990881174131,-0.0718388006246,0.00796906706487,0.0248996727896
1500000000.0,0.00824506731288,0.0266625596499,0.990438490494,-0.0769540777258,0.990438490494,-0.0769540777258,0.00824506731288,0.0266625596499
1600000000.0,0.00853895180319,0.0284223296624,0.989966620445,-0.0820661285776,0.989966620445,-0.0820661285776,0.00853895180319,0.0284223296624
1700000000.0,0.00885072351775,0.0301787870759,0.989465556639,-0.0871747453425,0.989465556639,-0.0871747453425,0.00885072351775,0.0301787870759
1800000000.0,0.00918037698856,0.031931736341,0.988935299974,-0.0922797201056,0.988935299974,-0.0922797201056,0.00918037698856,0.031931736341
1900000000.0,0.00952789949894,0.0336809821952,0.98837585839,-0.0973808449761,0.98837585839,-0.0973808449761,0.00952789949894,0.0336809821952
2000000000.0,0.00989327200361,0.0354263297376,0.987787245957,-0.102477912175,0.987787245957,-0.102477912175,0.00989327200361,0.0354263297376
2100000000.0,0.0102764698444,0.0371675844957,0.987169482155,-0.107570714113,0.987169482155,-0.107570714113,0.0102764698444,0.0371675844957
2200000000.0,0.0106774633155,0.0389045524851,0.986522591316,-0.112659043461,0.986522591316,-0.112659043461,0.0106774633155,0.0389045524851
2300000000.0,0.011096218115,0.0406370402645,0.985846602173,-0.117742693214,0.985846602173,-0.117742693214,0.011096218115,0.0406370402645
2400000000.0,0.0115326957113,0.042364854986,0.985141547493,-0.122821456748,0.985141547493,-0.122821456748,0.0115326957113,0.042364854986
2500000000.0,0.0119868536424,0.0440878044431,0.984407463786,-0.127895127875,0.984407463786,-0.127895127875,0.0119868536424,0.0440878044431
2600000000.0,0.0124586457646,0.0458056971146,0.983644391051,-0.132963500894,0.983644391051,-0.132963500894,0.0124586457646,0.0458056971146
2700000000.0,0.0129480224594,0.047518342207,0.982852372575,-0.138026370638,0.982852372575,-0.138026370638,0.0129480224594,0.047518342207
2800000000.0,0.0134549308097,0.0492255496943,0.98203145476,-0.143083532519,0.98203145476,-0.143083532519,0.0134549308097,0.0492255496943
2900000000.0,0.0139793147489,0.0509271303571,0.98118168697,-0.148134782569,0.98118168697,-0.148134782569,0.0139793147489,0.0509271303571
3000000000.0,0.0145211151899,0.0526228958188,0.980303121409,-0.153179917484,0.980303121409,-0.153179917484,0.0145211151899,0.0526228958188
3100000000.0,0.0150802701371,0.0543126585817,0.979395813008,-0.15821873466,0.979395813008,-0.15821873466,0.0150802701371,0.0543126585817
3200000000.0,0.0156567147844,0.0559962320615,0.978459819328,-0.163251032232,0.978459819328,-0.163251032232,0.0156567147844,0.0559962320615
3300000000.0,0.0162503816021,0.0576734306208,0.977495200478,-0.16827660911,0.977495200478,-0.16827660911,0.0162503816021,0.0576734306208
3400000000.0,0.016861200414,0.0593440696013,0.976502019032,-0.173295265013,0.976502019032,-0.173295265013,0.016861200414,0.0593440696013
3500000000.0,0.0174890984675,0.0610079653559,0.97548033997,-0.178306800505,0.97548033997,-0.178306800505,0.0174890984675,0.0610079653559
3600000000.0,0.018134000496,0.0626649352798,0.974430230609,-0.183311017024,0.974430230609,-0.183311017024,0.018134000496,0.0626649352798
3700000000.0,0.018795828777,0.06431479784,0.973351760549,-0.188307716918,0.973351760549,-0.188307716918,0.018795828777,0.06431479784
3800000000.0,0.0194745031846,0.0659573726055,0.972245001621,-0.193296703472,0.972245001621,-0.193296703472,0.0194745031846,0.0659573726055
3900000000.0,0.0201699412395,0.0675924802761,0.971110027842,-0.198277780942,0.971110027842,-0.198277780942,0.0201699412395,0.0675924802761
4000000000.0,0.0208820581539,0.0692199427104,0.969946915365,-0.203250754583,0.969946915365,-0.203250754583,0.0208820581539,0.0692199427104
4100000000.0,0.0216107668755,0.0708395829537,0.96875574244,-0.208215430675,0.96875574244,-0.208215430675,0.0216107668755,0.0708395829537
4200000000.0,0.0223559781276,0.072451225265,0.967536589374,-0.213171616555,0.967536589374,-0.213171616555,0.0223559781276,0.072451225265
4300000000.0,0.0231176004483,0.0740546951439,0.966289538494,-0.218119120641,0.966289538494,-0.218119120641,0.0231176004483,0.0740546951439
4400000000.0,0.0238955402277,0.0756498193563,0.965014674108,-0.223057752461,0.965014674108,-0.223057752461,0.0238955402277,0.0756498193563
4500000000.0,0.0246897017429,0.0772364259603,0.963712082476,-0.227987322678,0.963712082476,-0.227987322678,0.0246897017429,0.0772364259603
4600000000.0,0.0254999871934,0.0788143443309,0.962381851769,-0.232907643114,0.962381851769,-0.232907643114,0.0254999871934,0.0788143443309
4700000000.0,0.0263262967335,0.0803834051849,0.961024072043,-0.237818526778,0.961024072043,-0.237818526778,0.0263262967335,0.0803834051849
4800000000.0,0.0271685285054,0.0819434406048,0.959638835204,-0.242719787887,0.959638835204,-0.242719787887,0.0271685285054,0.0819434406048
4900000000.0,0.0280265786709,0.083494284062,0.958226234979,-0.247611241891,0.958226234979,-0.247611241891,0.0280265786709,0.083494284062
5000000000.0,0.028900341442,0.0850357704408,0.956786366884,-0.252492705498,0.956786366884,-0.252492705498,0.028900341442,0.0850357704408
5100000000.0,0.029789709112,0.0865677360602,0.955319328198,-0.257363996691,0.955319328198,-0.257363996691,0.029789709112,0.0865677360602
5200000000.0,0.0306945720852,0.0880900186964,0.953825217928,-0.262224934757,0.953825217928,-0.262224934757,0.0306945720852,0.0880900186964
5300000000.0,0.0316148189067,0.0896024576044,0.952304136786,-0.267075340302,0.952304136786,-0.267075340302,0.0316148189067,0.0896024576044
5400000000.0,0.0325503362916,0.0911048935392,0.950756187155,-0.271915035278,0.950756187155,-0.271915035278,0.0325503362916,0.0911048935392
5500000000.0,0.0335010091545,0.0925971687767,0.949181473068,-0.276743842997,0.949181473068,-0.276743842997,0.0335010091545,0.0925971687767
5600000000.0,0.0344667206377,0.0940791271337,0.947580100172,-0.281561588157,0.947580100172,-0.281561588157,0.0344667206377,0.0940791271337
5700000000.0,0.0354473521405,0.095550613988,0.945952175706,-0.286368096856,0.945952175706,-0.286368096856,0.0354473521405,0.095550613988
5800000000.0,0.0364427833471,0.0970114762974,0.944297808469,-0.291163196615,0.944297808469,-0.291163196615,0.0364427833471,0.0970114762974
5900000000.0,0.0374528922555,0.0984615626189,0.942617108798,-0.295946716395,0.942617108798,-0.295946716395,0.0374528922555,0.0984615626189
6000000000.0,0.0384775552054,0.0999007231271,0.940910188533,-0.300718486612,0.940910188533,-0.300718486612,0.0384775552054,0.0999007231271
6100000000.0,0.0395166469066,0.101328809632,0.939177160998,-0.305478339158,0.939177160998,-0.305478339158,0.0395166469066,0.101328809632
6200000000.0,0.0405700404669,0.102745675596,0.937418140965,-0.310226107418,0.937418140965,-0.310226107418,0.0405700404669,0.102745675596
6300000000.0,0.0416376074207,0.104151176151,0.935633244635,-0.314961626282,0.935633244635,-0.314961626282,0.0416376074207,0.104151176151
6400000000.0,0.0427192177562,0.105545168118,0.933822589603,-0.319684732165,0.933822589603,-0.319684732165,0.0427192177562,0.105545168118
6500000000.0,0.0438147399444,0.106927510018,0.931986294837,-0.324395263021,0.931986294837,-0.324395263021,0.0438147399444,0.106927510018
6600000000.0,0.0449240409664,0.108298062091,0.930124480647,-0.329093058356,0.930124480647,-0.329093058356,0.0449240409664,0.108298062091
6700000000.0,0.0460469863415,0.109656686309,0.928237268659,-0.333777959246,0.928237268659,-0.333777959246,0.0460469863415,0.109656686309
6800000000.0,0.0471834401555,0.111003246395,0.926324781789,-0.338449808347,0.926324781789,-0.338449808347,0.0471834401555,0.111003246395
6900000000.0,0.0483332650886,0.112337607831,0.92438714421,-0.343108449909,0.92438714421,-0.343108449909,0.0483332650886,0.112337607831
7000000000.0,0.0494963224432,0.113659637878,0.922424481335,-0.347753729793,0.922424481335,-0.347753729793,0.0494963224432,0.113659637878
7100000000.0,0.050672472172,0.114969205583,0.920436919778,-0.352385495476,0.920436919778,-0.352385495476,0.050672472172,0.114969205583
7200000000.0,0.0518615729062,0.116266181798,0.918424587337,-0.357003596068,0.918424587337,-0.357003596068,0.0518615729062,0.116266181798
7300000000.0,0.0530634819831,0.117550439187,0.916387612959,-0.361607882324,0.916387612959,-0.361607882324,0.0530634819831,0.117550439187
7400000000.0,0.0542780554745,0.118821852244,0.914326126717,-0.366198206649,0.914326126717,-0.366198206649,0.0542780554745,0.118821852244
7500000000.0,0.0555051482147,0.120080297296,0.912240259782,-0.370774423114,0.912240259782,-0.370774423114,0.0555051482147,0.120080297296
7600000000.0,0.0567446138281,0.121325652522,0.910130144393,-0.375336387466,0.910130144393,-0.375336387466,0.0567446138281,0.121325652522
7700000000.0,0.0579963047578,0.122557797961,0.907995913835,-0.379883957131,0.907995913835,-0.379883957131,0.0579963047578,0.122557797961
7800000000.0,0.059260072293,0.123776615518,0.905837702406,-0.384416991229,0.905837702406,-0.384416991229,0.059260072293,0.123776615518
7900000000.0,0.0605357665976,0.124981988979,0.903655645393,-0.388935350582,0.903655645393,-0.388935350582,0.0605357665976,0.124981988979
8000000000.0,0.0618232367376,0.12617380402,0.901449879043,-0.393438897718,0.901449879043,-0.393438897718,0.0618232367376,0.12617380402
8100000000.0,0.0631223307094,0.127351948209,0.899220540539,-0.397927496882,0.899220540539,-0.397927496882,0.0631223307094,0.127351948209
8200000000.0,0.0644328954677,0.128516311025,0.896967767969,-0.402401014041,0.896967767969,-0.402401014041,0.0644328954677,0.128516311025
8300000000.0,0.0657547769534,0.129666783854,0.894691700299,-0.406859316891,0.894691700299,-0.406859316891,0.0657547769534,0.129666783854
8400000000.0,0.0670878201212,0.130803260006,0.89239247735,-0.411302274864,0.89239247735,-0.411302274864,0.0670878201212,0.130803260006
8500000000.0,0.0684318689678,0.131925634717,0.890070239764,-0.415729759133,0.890070239764,-0.415729759133,0.0684318689678,0.131925634717
8600000000.0,0.0697867665596,0.133033805157,0.887725128985,-0.420141642615,0.887725128985,-0.420141642615,0.0697867665596,0.133033805157
8700000000.0,0.0711523550603,0.134127670434,0.885357287224,-0.424537799979,0.885357287224,-0.424537799979,0.0711523550603,0.134127670434
8800000000.0,0.0725284757585,0.135207131603,0.882966857439,-0.428918107647,0.882966857439,-0.428918107647,0.0725284757585,0.135207131603
8900000000.0,0.0739149690957,0.136272091668,0.880553983303,-0.433282443801,0.880553983303,-0.433282443801,0.0739149690957,0.136272091668
9000000000.0,0.0753116746935,0.137322455589,0.878118809178,-0.437630688383,0.878118809178,-0.437630688383,0.0753116746935,0.137322455589
9100000000.0,0.0767184313811,0.138358130284,0.875661480093,-0.441962723099,0.875661480093,-0.441962723099,0.0767184313811,0.138358130284
9200000000.0,0.078135077223,0.139379024635,0.87318214171,-0.446278431424,0.87318214171,-0.446278431424,0.078135077223,0.139379024635
9300000000.0,0.0795614495459,0.140385049491,0.870680940302,-0.450577698597,0.870680940302,-0.450577698597,0.0795614495459,0.140385049491
9400000000.0,0.0809973849661,0.141376117668,0.868158022726,-0.454860411632,0.868158022726,-0.454860411632,0.0809973849661,0.141376117668
9500000000.0,0.0824427194169,0.142352143958,0.865613536396,-0.459126459311,0.865613536396,-0.459126459311,0.0824427194169,0.142352143958
9600000000.0,0.083897288175,0.143313045123,0.863047629256,-0.463375732187,0.863047629256,-0.463375732187,0.083897288175,0.143313045123
9700000000.0,0.0853609258881,0.144258739905,0.860460449755,-0.467608122586,0.860460449755,-0.467608122586,0.0853609258881,0.144258739905
9800000000.0,0.0868334666013,0.145189149021,0.857852146821,-0.471823524605,0.857852146821,-0.471823524605,0.0868334666013,0.145189149021
9900000000.0,0.0883147437836,0.146104195167,0.855222869834,-0.476021834112,0.855222869834,-0.476021834112,0.0883147437836,0.146104195167
10000000000.0,0.0898045903552,0.147003803018,0.852572768602,-0.480202948744,0.852572768602,-0.480202948744,0.0898045903552,0.147003803018
