freq (GHz),S11_real,S11_imag,S21_real,S21_imag,S12_real,S12_imag,S22_real,S22_imag
100000000.0,-1.29532616465e-05,-0.00379034894842,0.999975169967,-0.00385436898504,0.999975169967,-0.00385436898504,-1.29532616467e-05,-0.00379034894842
200000000.0,-6.0517409279e-05,-0.00758015709436,0.999927518746,-0.00770821249481,0.999927518746,-0.00770821249481,-6.05174092789e-05,-0.00758015709436
300000000.0,-0.000137292254846,-0.0113690150384,0.99985067321,-0.0115611288557,0.99985067321,-0.0115611288557,-0.000137292254846,-0.0113690150384
400000000.0,-0.000243252416189,-0.0151565320024,0.99974464852,-0.0154127330933,0.99974464852,-0.0154127330933,-0.000243252416188,-0.0151565320024
500000000.0,-0.000378369273012,-0.0189423272308,0.999609469373,-0.0192626492437,0.999609469373,-0.0192626492437,-0.000378369273013,-0.0189423272308
600000000.0,-0.000542609006049,-0.0227260270482,0.999445167594,-0.0231105077324,0.999445167594,-0.0231105077324,-0.000542609006048,-0.0227260270482
700000000.0,-0.000735932212392,-0.0265072634028,0.999251781408,-0.0269559440844,0.999251781408,-0.0269559440844,-0.000735932212392,-0.0265072634028
800000000.0,-0.00095829384465,-0.0302856730255,0.9990293551,-0.0307985981844,0.9990293551,-0.0307985981844,-0.00095829384465,-0.0302856730255
900000000.0,-0.00120964324366,-0.0340608969061,0.998777938803,-0.0346381138213,0.998777938803,-0.0346381138213,-0.00120964324366,-0.0340608969061
1000000000.0,-0.0014899242035,-0.037832579942,0.998497588338,-0.0384741383861,0.998497588338,-0.0384741383861,-0.0014899242035,-0.037832579942
1100000000.0,-0.00179907504861,-0.0416003707034,0.998188365093,-0.0423063226751,0.998188365093,-0.0423063226751,-0.00179907504861,-0.0416003707034
1200000000.0,-0.00213702871425,-0.0453639212594,0.997850335906,-0.0461343207448,0.997850335906,-0.0461343207448,-0.00213702871425,-0.0453639212594
1300000000.0,-0.00250371282848,-0.0491228870632,0.997483572971,-0.0499577898219,0.997483572971,-0.0499577898219,-0.00250371282848,-0.0491228870632
1400000000.0,-0.00289904979327,-0.0528769268639,0.997088153738,-0.0537763902353,0.997088153738,-0.0537763902353,-0.00289904979327,-0.0528769268639
1500000000.0,-0.003322956865,-0.0566257026486,0.996664160829,-0.057589785375,0.996664160829,-0.057589785375,-0.00332295686501,-0.0566257026486
1600000000.0,-0.00377534623394,-0.0603688796014,0.996211681951,-0.0613976416667,0.996211681951,-0.0613976416667,-0.00377534623394,-0.0603688796014
1700000000.0,-0.00425612510245,-0.0641061260751,0.995730809814,-0.0651996285563,0.995730809814,-0.0651996285563,-0.00425612510245,-0.0641061260751
1800000000.0,-0.00476519576253,-0.0678371135771,0.995221642049,-0.0689954185078,0.995221642049,-0.0689954185078,-0.00476519576253,-0.0678371135771
1900000000.0,-0.00530245567274,-0.071561516764,0.99468428113,-0.0727846870081,0.99468428113,-0.0727846870081,-0.00530245567274,-0.071561516764
2000000000.0,-0.00586779753361,-0.0752790134381,0.994118834297,-0.0765671125734,0.994118834297,-0.0765671125734,-0.00586779753361,-0.0752790134381
2100000000.0,-0.00646110936356,-0.0789892845576,0.993525413479,-0.0803423767679,0.993525413479,-0.0803423767679,-0.00646110936356,-0.0789892845576
2200000000.0,-0.00708227457343,-0.082692014244,0.992904135216,-0.0841101642195,0.992904135216,-0.0841101642195,-0.00708227457343,-0.082692014244
2300000000.0,-0.00773117204111,-0.0863868897984,0.992255120587,-0.0878701626427,0.992255120587,-0.0878701626427,-0.00773117204111,-0.0863868897984
2400000000.0,-0.00840767618568,-0.0900736017177,0.991578495132,-0.0916220628625,0.991578495132,-0.0916220628625,-0.00840767618568,-0.0900736017177
2500000000.0,-0.00911165704145,-0.0937518437152,0.990874388781,-0.0953655588408,0.990874388781,-0.0953655588408,-0.00911165704145,-0.0937518437152
2600000000.0,-0.00984298033172,-0.0974213127426,0.990142935776,-0.0991003477041,0.990142935776,-0.0991003477041,-0.00984298033172,-0.0974213127426
2700000000.0,-0.0106015075426,-0.101081709014,0.989384274599,-0.102826129773,0.989384274599,-0.102826129773,-0.0106015075426,-0.101081709014
2800000000.0,-0.0113870959966,-0.10473273603,0.988598547898,-0.106542608592,0.988598547898,-0.106542608592,-0.0113870959966,-0.10473273603
2900000000.0,-0.0121995989264,-0.108374100606,0.987785902412,-0.110249490962,0.987785902412,-0.110249490962,-0.0121995989264,-0.108374100606
3000000000.0,-0.0130388655489,-0.112005512897,0.986946488899,-0.113946486969,0.986946488899,-0.113946486969,-0.0130388655489,-0.112005512897
3100000000.0,-0.0139047411386,-0.11562668643,0.986080462058,-0.117633310021,0.986080462058,-0.117633310021,-0.0139047411386,-0.11562668643
3200000000.0,-0.0147970671019,-0.119237338126,0.98518798046,-0.121309676874,0.98518798046,-0.121309676874,-0.0147970671019,-0.119237338126
3300000000.0,-0.0157156810517,-0.122837188334,0.98426920647,-0.124975307672,0.98426920647,-0.124975307672,-0.0157156810517,-0.122837188334
3400000000.0,-0.016660416881,-0.126425960859,0.983324306173,-0.128629925972,0.983324306173,-0.128629925972,-0.016660416881,-0.126425960859
3500000000.0,-0.0176311048381,-0.130003382991,0.9823534493,-0.132273258784,0.9823534493,-0.132273258784,-0.0176311048381,-0.130003382991
3600000000.0,-0.0186275716009,-0.133569185533,0.981356809154,-0.135905036595,0.981356809154,-0.135905036595,-0.0186275716009,-0.133569185533
3700000000.0,-0.0196496403527,-0.137123102832,0.980334562534,-0.139524993407,0.980334562534,-0.139524993407,-0.0196496403527,-0.137123102832
3800000000.0,-0.0206971308569,-0.140664872807,0.979286889656,-0.143132866769,0.979286889656,-0.143132866769,-0.0206971308569,-0.140664872807
3900000000.0,-0.0217698595323,-0.144194236977,0.978213974087,-0.146728397803,0.978213974087,-0.146728397803,-0.0217698595323,-0.144194236977
4000000000.0,-0.0228676395297,-0.14771094049,0.977116002657,-0.150311331236,0.977116002657,-0.150311331236,-0.0228676395297,-0.14771094049
4100000000.0,-0.0239902808073,-0.151214732149,0.975993165392,-0.153881415433,0.975993165392,-0.153881415433,-0.0239902808073,-0.151214732149
4200000000.0,-0.025137590207,-0.154705364444,0.974845655436,-0.157438402424,0.974845655436,-0.157438402424,-0.025137590207,-0.154705364444
4300000000.0,-0.0263093715315,-0.15818259357,0.97367366897,-0.16098204793,0.97367366897,-0.16098204793,-0.0263093715315,-0.15818259357
4400000000.0,-0.0275054256201,-0.161646179461,0.97247740514,-0.164512111395,0.97247740514,-0.164512111395,-0.0275054256201,-0.161646179461
4500000000.0,-0.0287255504264,-0.165095885809,0.97125706598,-0.168028356008,0.97125706598,-0.168028356008,-0.0287255504264,-0.165095885809
4600000000.0,-0.0299695410949,-0.168531480092,0.970012856329,-0.171530548734,0.970012856329,-0.171530548734,-0.0299695410949,-0.168531480092
4700000000.0,-0.031237190039,-0.171952733595,0.968744983763,-0.175018460331,0.968744983763,-0.175018460331,-0.031237190039,-0.171952733595
4800000000.0,-0.0325282870176,-0.175359421434,0.967453658508,-0.178491865384,0.967453658508,-0.178491865384,-0.0325282870176,-0.175359421434
4900000000.0,-0.0338426192135,-0.178751322577,0.96613909337,-0.181950542317,0.96613909337,-0.181950542317,-0.0338426192135,-0.178751322577
5000000000.0,-0.0351799713108,-0.182128219861,0.964801503653,-0.185394273422,0.964801503653,-0.185394273422,-0.0351799713108,-0.182128219861
5100000000.0,-0.0365401255726,-0.185489900016,0.96344110708,-0.188822844877,0.96344110708,-0.188822844877,-0.0365401255726,-0.185489900016
5200000000.0,-0.0379228619194,-0.188836153683,0.962058123722,-0.192236046763,0.962058123722,-0.192236046763,-0.0379228619194,-0.188836153683
5300000000.0,-0.0393279580066,-0.192166775426,0.960652775909,-0.195633673087,0.960652775909,-0.195633673087,-0.0393279580066,-0.192166775426
5400000000.0,-0.0407551893029,-0.195481563755,0.959225288164,-0.199015521794,0.959225288164,-0.199015521794,-0.0407551893029,-0.195481563755
5500000000.0,-0.0422043291678,-0.198780321134,0.957775887115,-0.202381394786,0.957775887115,-0.202381394786,-0.0422043291678,-0.198780321134
5600000000.0,-0.0436751489302,-0.202062853998,0.956304801424,-0.205731097932,0.956304801424,-0.205731097932,-0.0436751489302,-0.202062853998
5700000000.0,-0.0451674179657,-0.205328972769,0.954812261705,-0.209064441087,0.954812261705,-0.209064441087,-0.0451674179657,-0.205328972769
5800000000.0,-0.0466809037749,-0.208578491857,0.953298500446,-0.212381238099,0.953298500446,-0.212381238099,-0.0466809037749,-0.208578491857
5900000000.0,-0.0482153720607,-0.211811229682,0.951763751937,-0.215681306822,0.951763751937,-0.215681306822,-0.0482153720607,-0.211811229682
6000000000.0,-0.0497705868062,-0.215027008671,0.950208252183,-0.218964469123,0.950208252183,-0.218964469123,-0.0497705868062,-0.215027008671
6100000000.0,-0.0513463103517,-0.218225655274,0.948632238835,-0.222230550891,0.948632238835,-0.222230550891,-0.0513463103517,-0.218225655274
6200000000.0,-0.0529423034721,-0.221406999966,0.94703595111,-0.225479382043,0.94703595111,-0.225479382043,-0.0529423034721,-0.221406999966
6300000000.0,-0.0545583254538,-0.224570877253,0.945419629712,-0.228710796531,0.945419629712,-0.228710796531,-0.0545583254538,-0.224570877253
6400000000.0,-0.0561941341712,-0.227717125671,0.943783516758,-0.231924632342,0.943783516758,-0.231924632342,-0.0561941341712,-0.227717125671
6500000000.0,-0.0578494861629,-0.230845587796,0.9421278557,-0.235120731502,0.9421278557,-0.235120731502,-0.0578494861629,-0.230845587796
6600000000.0,-0.0595241367082,-0.233956110238,0.940452891253,-0.23829894008,0.940452891253,-0.23829894008,-0.0595241367082,-0.233956110238
6700000000.0,-0.0612178399019,-0.237048543642,0.938758869311,-0.241459108183,0.938758869311,-0.241459108183,-0.0612178399019,-0.237048543642
6800000000.0,-0.0629303487302,-0.240122742687,0.937046036883,-0.244601089955,0.937046036883,-0.244601089955,-0.0629303487302,-0.240122742687
6900000000.0,-0.0646614151452,-0.243178566082,0.935314642006,-0.247724743577,0.935314642006,-0.247724743577,-0.0646614151452,-0.243178566082
7000000000.0,-0.0664107901391,-0.246215876562,0.933564933682,-0.250829931259,0.933564933682,-0.250829931259,-0.0664107901391,-0.246215876562
7100000000.0,-0.068178223818,-0.249234540882,0.931797161797,-0.253916519239,0.931797161797,-0.253916519239,-0.068178223818,-0.249234540882
7200000000.0,-0.0699634654755,-0.252234429807,0.93001157705,-0.256984377768,0.93001157705,-0.256984377768,-0.0699634654755,-0.252234429807
7300000000.0,-0.0717662636651,-0.255215418107,0.928208430881,-0.260033381111,0.928208430881,-0.260033381111,-0.0717662636651,-0.255215418107
7400000000.0,-0.0735863662724,-0.258177384548,0.926387975396,-0.26306340753,0.926387975396,-0.26306340753,-0.0735863662724,-0.258177384548
7500000000.0,-0.0754235205867,-0.261120211875,0.924550463299,-0.266074339277,0.924550463299,-0.266074339277,-0.0754235205867,-0.261120211875
7600000000.0,-0.0772774733719,-0.264043786805,0.922696147821,-0.269066062579,0.922696147821,-0.269066062579,-0.0772774733719,-0.264043786805
7700000000.0,-0.0791479709367,-0.266948000014,0.920825282644,-0.272038467627,0.920825282644,-0.272038467627,-0.0791479709367,-0.266948000014
7800000000.0,-0.081034759204,-0.269832746116,0.918938121841,-0.27499144856,0.918938121841,-0.27499144856,-0.081034759204,-0.269832746116
7900000000.0,-0.08293758378,-0.272697923654,0.917034919798,-0.277924903449,0.917034919798,-0.277924903449,-0.08293758378,-0.272697923654
8000000000.0,-0.084856190022,-0.275543435078,0.915115931151,-0.280838734281,0.915115931151,-0.280838734281,-0.084856190022,-0.275543435078
8100000000.0,-0.0867903231057,-0.278369186729,0.91318141072,-0.283732846938,0.91318141072,-0.283732846938,-0.0867903231057,-0.278369186729
8200000000.0,-0.0887397280922,-0.28117508882,0.911231613435,-0.286607151181,0.911231613435,-0.286607151181,-0.0887397280922,-0.28117508882
8300000000.0,-0.0907041499927,-0.283961055411,0.909266794281,-0.289461560626,0.909266794281,-0.289461560626,-0.0907041499927,-0.283961055411
8400000000.0,-0.0926833338346,-0.286727004394,0.907287208225,-0.292295992724,0.907287208225,-0.292295992724,-0.0926833338346,-0.286727004394
8500000000.0,-0.0946770247244,-0.289472857462,0.905293110152,-0.295110368739,0.905293110152,-0.295110368739,-0.0946770247244,-0.289472857462
8600000000.0,-0.0966849679116,-0.292198540095,0.903284754809,-0.29790461372,0.903284754809,-0.29790461372,-0.0966849679116,-0.292198540095
8700000000.0,-0.0987069088504,-0.294903981524,0.901262396736,-0.300678656483,0.901262396736,-0.300678656483,-0.0987069088504,-0.294903981524
8800000000.0,-0.100742593261,-0.297589114715,0.899226290207,-0.303432429577,0.899226290207,-0.303432429577,-0.100742593261,-0.297589114715
8900000000.0,-0.102791767192,-0.300253876335,0.897176689168,-0.306165869263,0.897176689168,-0.306165869263,-0.102791767192,-0.300253876335
9000000000.0,-0.104854177075,-0.302898206727,0.895113847181,-0.308878915484,0.895113847181,-0.308878915484,-0.104854177075,-0.302898206727
9100000000.0,-0.106929569788,-0.305522049882,0.893038017363,-0.311571511836,0.893038017363,-0.311571511836,-0.106929569788,-0.305522049882
9200000000.0,-0.109017692712,-0.308125353405,0.89094945233,-0.314243605536,0.89094945233,-0.314243605536,-0.109017692712,-0.308125353405
9300000000.0,-0.111118293784,-0.310708068491,0.888848404137,-0.316895147397,0.888848404137,-0.316895147397,-0.111118293784,-0.310708068491
9400000000.0,-0.113231121556,-0.313270149888,0.886735124228,-0.319526091789,0.886735124228,-0.319526091789,-0.113231121556,-0.313270149888
9500000000.0,-0.115355925251,-0.315811555865,0.884609863376,-0.322136396614,0.884609863376,-0.322136396614,-0.115355925251,-0.315811555865
9600000000.0,-0.117492454809,-0.318332248183,0.882472871633,-0.324726023267,0.882472871633,-0.324726023267,-0.117492454809,-0.318332248183
9700000000.0,-0.11964046095,-0.320832192057,0.880324398279,-0.327294936605,0.880324398279,-0.327294936605,-0.11964046095,-0.320832192057
9800000000.0,-0.121799695214,-0.323311356123,0.878164691765,-0.329843104913,0.878164691765,-0.329843104913,-0.121799695214,-0.323311356123
9900000000.0,-0.12396991002,-0.325769712401,0.875993999668,-0.332370499864,0.875993999668,-0.332370499864,-0.12396991002,-0.325769712401
10000000000.0,-0.126150858714,-0.328207236261,0.87381256864,-0.334877096488,0.87381256864,-0.334877096488,-0.126150858714,-0.328207236261
