freq (GHz),S11_real,S11_imag,S21_real,S21_imag,S12_real,S12_imag,S22_real,S22_imag
100000000.0,0.00165737050821,0.000380418852846,0.998331429265,-0.00404611437658,0.998331429265,-0.00404611437658,0.00165737050821,0.000380418852846
200000000.0,0.00167137248547,0.000760704664506,0.99829378134,-0.00809213561922,0.99829378134,-0.00809213561922,0.00167137248547,0.000760704664506
300000000.0,0.0016855607205,0.00114086007641,0.998242499775,-0.0121380778469,0.998242499775,-0.0121380778469,0.0016855607205,0.00114086007641
400000000.0,0.00170136929754,0.00152086521167,0.99817614835,-0.016183919386,0.99817614835,-0.016183919386,0.00170136929754,0.00152086521167
500000000.0,0.00171934907403,0.00190069590984,0.998094173699,-0.020229627477,0.998094173699,-0.020229627477,0.00171934907403,0.00190069590984
600000000.0,0.00173977984968,0.00228032653364,0.997996293207,-0.0242751633673,0.997996293207,-0.0242751633673,0.00173977984968,0.00228032653364
700000000.0,0.00176282590598,0.00265973089372,0.99788233952,-0.0283204844076,0.99788233952,-0.0283204844076,0.00176282590598,0.00265973089372
800000000.0,0.00178859274699,0.00303888263805,0.997752203842,-0.0323655451471,0.997752203842,-0.0323655451471,0.00178859274699,0.00303888263805
900000000.0,0.00181715235306,0.00341775543885,0.997605810713,-0.0364102979882,0.997605810713,-0.0364102979882,0.00181715235306,0.00341775543885
1000000000.0,0.00184855597704,0.00379632308936,0.997443105238,-0.0404546936138,0.997443105238,-0.0404546936138,0.00184855597704,0.00379632308936
1100000000.0,0.0018828412559,0.004174559556,0.997264045996,-0.0444986812851,0.997264045996,-0.0444986812851,0.0018828412559,0.004174559556
1200000000.0,0.00192003644771,0.00455243900661,0.997068600827,-0.0485422090585,0.997068600827,-0.0485422090585,0.00192003644771,0.00455243900661
1300000000.0,0.00196016309744,0.00492993582545,0.996856744182,-0.0525852239504,0.996856744182,-0.0525852239504,0.00196016309744,0.00492993582545
1400000000.0,0.00200323778945,0.00530702462017,0.996628455384,-0.0566276720651,0.996628455384,-0.0566276720651,0.00200323778945,0.00530702462017
1500000000.0,0.00204927334213,0.00568368022418,0.996383717453,-0.060669498697,0.996383717453,-0.060669498697,0.00204927334213,0.00568368022418
1600000000.0,0.00209827964744,0.00605987769612,0.996122516273,-0.0647106484147,0.996122516273,-0.0647106484147,0.00209827964744,0.00605987769612
1700000000.0,0.00215026427651,0.00643559231746,0.995844840005,-0.0687510651297,0.995844840005,-0.0687510651297,0.00215026427651,0.00643559231746
1800000000.0,0.00220523292627,0.00681079958923,0.995550678648,-0.0727906921548,0.995550678648,-0.0727906921548,0.00220523292627,0.00681079958923
1900000000.0,0.00226318975556,0.00718547522787,0.995240023712,-0.0768294722539,0.995240023712,-0.0768294722539,0.00226318975556,0.00718547522787
2000000000.0,0.00232413764233,0.00755959516091,0.994912867975,-0.0808673476847,0.994912867975,-0.0808673476847,0.00232413764233,0.00755959516091
2100000000.0,0.00238807838362,0.00793313552241,0.99456920529,-0.0849042602358,0.99456920529,-0.0849042602358,0.00238807838362,0.00793313552241
2200000000.0,0.00245501285323,0.0083060726483,0.994209030433,-0.0889401512596,0.994209030433,-0.0889401512596,0.00245501285323,0.0083060726483
2300000000.0,0.0025249411275,0.00867838307185,0.99383233899,-0.0929749617012,0.99383233899,-0.0929749617012,0.0025249411275,0.00867838307185
2400000000.0,0.0025978625869,0.00905004351914,0.993439127262,-0.0970086321244,0.993439127262,-0.0970086321244,0.0025978625869,0.00905004351914
2500000000.0,0.00267377599893,0.00942103090465,0.993029392185,-0.101041102734,0.993029392185,-0.101041102734,0.00267377599893,0.00942103090465
2600000000.0,0.00275267958633,0.00979132232703,0.992603131276,-0.105072313399,0.992603131276,-0.105072313399,0.00275267958633,0.00979132232703
2700000000.0,0.00283457108383,0.0101608950649,0.992160342576,-0.109102203667,0.992160342576,-0.109102203667,0.00283457108383,0.0101608950649
2800000000.0,0.00291944778563,0.0105297265731,0.991701024612,-0.113130712788,0.991701024612,-0.113130712788,0.00291944778563,0.0105297265731
2900000000.0,0.00300730658558,0.0108977944784,0.991225176364,-0.117157779722,0.991225176364,-0.117157779722,0.00300730658558,0.0108977944784
3000000000.0,0.00309814401121,0.0112650765763,0.990732797234,-0.121183343163,0.990732797234,-0.121183343163,0.00309814401121,0.0112650765763
3100000000.0,0.00319195625298,0.0116315508271,0.990223887021,-0.125207341544,0.990223887021,-0.125207341544,0.00319195625298,0.0116315508271
3200000000.0,0.00328873918941,0.0119971953529,0.989698445908,-0.129229713054,0.989698445908,-0.129229713054,0.00328873918941,0.0119971953529
3300000000.0,0.00338848840886,0.0123619884338,0.989156474435,-0.13325039565,0.989156474435,-0.13325039565,0.00338848840886,0.0123619884338
3400000000.0,0.0034911992285,0.0127259085053,0.988597973494,-0.137269327063,0.988597973494,-0.137269327063,0.0034911992285,0.0127259085053
3500000000.0,0.00359686671099,0.0130889341547,0.98802294431,-0.141286444813,0.98802294431,-0.141286444813,0.00359686671099,0.0130889341547
3600000000.0,0.00370548567905,0.0134510441187,0.987431388437,-0.145301686219,0.987431388437,-0.145301686219,0.00370548567905,0.0134510441187
3700000000.0,0.00381705072844,0.0138122172804,0.986823307743,-0.149314988402,0.986823307743,-0.149314988402,0.00381705072844,0.0138122172804
3800000000.0,0.00393155623947,0.0141724326665,0.986198704408,-0.153326288299,0.986198704408,-0.153326288299,0.00393155623947,0.0141724326665
3900000000.0,0.00404899638723,0.0145316694449,0.985557580913,-0.157335522668,0.985557580913,-0.157335522668,0.00404899638723,0.0145316694449
4000000000.0,0.00416936515079,0.014889906922,0.984899940039,-0.161342628096,0.984899940039,-0.161342628096,0.00416936515079,0.014889906922
4100000000.0,0.00429265632149,0.0152471245404,0.984225784857,-0.165347541008,0.984225784857,-0.165347541008,0.00429265632149,0.0152471245404
4200000000.0,0.00441886351037,0.0156033018768,0.98353511873,-0.169350197672,0.98353511873,-0.169350197672,0.00441886351037,0.0156033018768
4300000000.0,0.00454798015495,0.0159584186393,0.982827945305,-0.173350534203,0.982827945305,-0.173350534203,0.00454798015495,0.0159584186393
4400000000.0,0.00467999952536,0.0163124546657,0.982104268512,-0.177348486574,0.982104268512,-0.177348486574,0.00467999952536,0.0163124546657
4500000000.0,0.00481491472994,0.0166653899212,0.981364092563,-0.181343990618,0.981364092563,-0.181343990618,0.00481491472994,0.0166653899212
4600000000.0,0.00495271872036,0.0170172044962,0.980607421946,-0.185336982038,0.980607421946,-0.185336982038,0.00495271872036,0.0170172044962
4700000000.0,0.00509340429632,0.0173678786048,0.979834261426,-0.189327396404,0.979834261426,-0.189327396404,0.00509340429632,0.0173678786048
4800000000.0,0.00523696410989,0.0177173925827,0.979044616042,-0.193315169169,0.979044616042,-0.193315169169,0.00523696410989,0.0177173925827
4900000000.0,0.00538339066942,0.0180657268854,0.978238491109,-0.197300235665,0.978238491109,-0.197300235665,0.00538339066942,0.0180657268854
5000000000.0,0.00553267634331,0.0184128620865,0.977415892213,-0.201282531111,0.977415892213,-0.201282531111,0.00553267634331,0.0184128620865
5100000000.0,0.00568481336335,0.0187587788758,0.976576825211,-0.20526199062,0.976576825211,-0.20526199062,0.00568481336335,0.0187587788758
5200000000.0,0.00583979382791,0.019103458058,0.975721296231,-0.209238549199,0.975721296231,-0.209238549199,0.00583979382791,0.019103458058
5300000000.0,0.00599760970488,0.019446880551,0.974849311673,-0.213212141755,0.974849311673,-0.213212141755,0.00599760970488,0.019446880551
5400000000.0,0.00615825283442,0.0197890273842,0.973960878206,-0.217182703101,0.973960878206,-0.217182703101,0.00615825283442,0.0197890273842
5500000000.0,0.00632171493152,0.0201298796972,0.973056002769,-0.221150167957,0.973056002769,-0.221150167957,0.00632171493152,0.0201298796972
5600000000.0,0.00648798758837,0.0204694187384,0.972134692568,-0.225114470955,0.972134692568,-0.225114470955,0.00648798758837,0.0204694187384
5700000000.0,0.00665706227667,0.0208076258634,0.971196955081,-0.229075546644,0.971196955081,-0.229075546644,0.00665706227667,0.0208076258634
5800000000.0,0.00682893034965,0.021144482534,0.970242798055,-0.23303332949,0.970242798055,-0.23303332949,0.00682893034965,0.021144482534
5900000000.0,0.00700358304416,0.0214799703164,0.969272229504,-0.236987753884,0.969272229504,-0.236987753884,0.00700358304416,0.0214799703164
6000000000.0,0.00718101148241,0.0218140708804,0.968285257712,-0.240938754142,0.968285257712,-0.240938754142,0.00718101148241,0.0218140708804
6100000000.0,0.00736120667385,0.0221467659981,0.967281891232,-0.24488626451,0.967281891232,-0.24488626451,0.00736120667385,0.0221467659981
6200000000.0,0.00754415951673,0.0224780375425,0.966262138887,-0.248830219168,0.966262138887,-0.248830219168,0.00754415951673,0.0224780375425
6300000000.0,0.00772986079973,0.0228078674864,0.96522600977,-0.252770552228,0.96522600977,-0.252770552228,0.00772986079973,0.0228078674864
6400000000.0,0.00791830120342,0.0231362379015,0.96417351324,-0.256707197744,0.96417351324,-0.256707197744,0.00791830120342,0.0231362379015
6500000000.0,0.00810947130165,0.023463130957,0.963104658929,-0.260640089712,0.963104658929,-0.260640089712,0.00810947130165,0.023463130957
6600000000.0,0.00830336156289,0.0237885289191,0.962019456739,-0.26456916207,0.962019456739,-0.26456916207,0.00830336156289,0.0237885289191
6700000000.0,0.00849996235151,0.0241124141492,0.960917916841,-0.268494348707,0.960917916841,-0.268494348707,0.00849996235151,0.0241124141492
6800000000.0,0.00869926392893,0.0244347691035,0.959800049676,-0.272415583458,0.959800049676,-0.272415583458,0.00869926392893,0.0244347691035
6900000000.0,0.00890125645477,0.024755576332,0.958665865957,-0.276332800115,0.958665865957,-0.276332800115,0.00890125645477,0.024755576332
7000000000.0,0.00910592998797,0.0250748184773,0.957515376668,-0.280245932424,0.957515376668,-0.280245932424,0.00910592998796,0.0250748184773
7100000000.0,0.00931327448772,0.0253924782738,0.956348593064,-0.284154914087,0.956348593064,-0.284154914087,0.00931327448772,0.0253924782738
7200000000.0,0.00952327981456,0.0257085385471,0.955165526672,-0.288059678771,0.955165526672,-0.288059678771,0.00952327981456,0.0257085385471
7300000000.0,0.00973593573117,0.0260229822128,0.953966189291,-0.291960160102,0.953966189291,-0.291960160102,0.00973593573117,0.0260229822128
7400000000.0,0.00995123190336,0.0263357922758,0.952750592991,-0.295856291674,0.952750592991,-0.295856291674,0.00995123190336,0.0263357922758
7500000000.0,0.0101691579009,0.0266469518297,0.951518750117,-0.299748007048,0.951518750117,-0.299748007048,0.0101691579009,0.0266469518297
7600000000.0,0.0103897031981,0.0269564440557,0.950270673285,-0.303635239756,0.950270673285,-0.303635239756,0.0103897031981,0.0269564440557
7700000000.0,0.010612857175,0.027264252222,0.949006375385,-0.307517923301,0.949006375385,-0.307517923301,0.010612857175,0.027264252222
7800000000.0,0.0108386091177,0.0275703596833,0.947725869582,-0.311395991163,0.947725869582,-0.311395991163,0.0108386091177,0.0275703596833
7900000000.0,0.0110669482192,0.0278747498797,0.946429169314,-0.315269376797,0.946429169314,-0.315269376797,0.0110669482192,0.0278747498797
8000000000.0,0.0112978635801,0.0281774063364,0.945116288291,-0.319138013639,0.945116288291,-0.319138013639,0.0112978635801,0.0281774063364
8100000000.0,0.0115313442091,0.0284783126626,0.943787240503,-0.323001835105,0.943787240503,-0.323001835105,0.0115313442091,0.0284783126626
8200000000.0,0.0117673790238,0.0287774525514,0.942442040209,-0.326860774595,0.942442040209,-0.326860774595,0.0117673790238,0.0287774525514
8300000000.0,0.012005956851,0.0290748097789,0.941080701948,-0.330714765494,0.941080701948,-0.330714765494,0.012005956851,0.0290748097789
8400000000.0,0.0122470664274,0.0293703682035,0.939703240533,-0.334563741176,0.939703240533,-0.334563741176,0.0122470664274,0.0293703682035
8500000000.0,0.0124906964001,0.0296641117655,0.938309671053,-0.338407635003,0.938309671053,-0.338407635003,0.0124906964001,0.0296641117655
8600000000.0,0.0127368353271,0.0299560244865,0.936900008872,-0.34224638033,0.936900008872,-0.34224638033,0.0127368353271,0.0299560244865
8700000000.0,0.0129854716776,0.030246090469,0.935474269634,-0.346079910505,0.935474269634,-0.346079910505,0.0129854716776,0.030246090469
8800000000.0,0.0132365938328,0.0305342938957,0.934032469256,-0.34990815887,0.934032469256,-0.34990815887,0.0132365938328,0.0305342938957
8900000000.0,0.0134901900858,0.0308206190288,0.932574623936,-0.353731058768,0.932574623936,-0.353731058768,0.0134901900858,0.0308206190288
9000000000.0,0.0137462486425,0.0311050502102,0.931100750147,-0.357548543537,0.931100750147,-0.357548543537,0.0137462486425,0.0311050502102
9100000000.0,0.0140047576216,0.0313875718603,0.929610864642,-0.36136054652,0.929610864642,-0.36136054652,0.0140047576216,0.0313875718603
9200000000.0,0.0142657050552,0.031668168478,0.92810498445,-0.365167001061,0.92810498445,-0.365167001061,0.0142657050552,0.031668168478
9300000000.0,0.0145290788889,0.0319468246401,0.926583126879,-0.368967840509,0.926583126879,-0.368967840509,0.0145290788889,0.0319468246401
9400000000.0,0.0147948669824,0.0322235250011,0.925045309518,-0.372762998221,0.925045309518,-0.372762998221,0.0147948669824,0.0322235250011
9500000000.0,0.0150630571095,0.0324982542923,0.923491550232,-0.37655240756,0.923491550232,-0.37655240756,0.0150630571095,0.0324982542923
9600000000.0,0.0153336369587,0.032770997322,0.921921867168,-0.380336001902,0.921921867168,-0.380336001902,0.0153336369587,0.032770997322
9700000000.0,0.0156065941331,0.0330417389749,0.920336278751,-0.384113714632,0.920336278751,-0.384113714632,0.0156065941331,0.0330417389749
9800000000.0,0.0158819161509,0.0333104642118,0.918734803687,-0.387885479153,0.918734803687,-0.387885479153,0.0158819161509,0.0333104642118
9900000000.0,0.0161595904455,0.033577158069,0.917117460961,-0.391651228879,0.917117460961,-0.391651228879,0.0161595904455,0.033577158069
10000000000.0,0.0164396043659,0.0338418056584,0.915484269839,-0.395410897244,0.915484269839,-0.395410897244,0.0164396043659,0.0338418056584
