freq (GHz),S11_real,S11_imag,S21_real,S21_imag,S12_real,S12_imag,S22_real,S22_imag
100000000.0,-0.000377161262126,-0.0198327020021,0.999527618965,-0.0203763810954,0.999527618965,-0.0203763810954,-0.000377161262126,-0.0198327020021
200000000.0,-0.00160765051453,-0.0396159729843,0.998296038234,-0.0407034812016,0.998296038234,-0.0407034812016,-0.00160765051453,-0.0396159729843
300000000.0,-0.00363902379706,-0.0593020210391,0.996263440947,-0.0609335873262,0.996263440947,-0.0609335873262,-0.00363902379706,-0.0593020210391
400000000.0,-0.00646167502898,-0.07884372349,0.993439350817,-0.0810196373838,0.993439350817,-0.0810196373838,-0.00646167502898,-0.07884372349
500000000.0,-0.0100623730386,-0.098195032712,0.989836967011,-0.10091563475,0.989836967011,-0.10091563475,-0.0100623730386,-0.098195032712
600000000.0,-0.014424390696,-0.117311338355,0.985473000013,-0.12057701356,0.985473000013,-0.12057701356,-0.014424390696,-0.117311338355
700000000.0,-0.0195276873611,-0.136149799566,0.980367480302,-0.139960972512,0.980367480302,-0.139960972512,-0.0195276873611,-0.136149799566
800000000.0,-0.0253491297005,-0.154669646372,0.974543534308,-0.159026777223,0.974543534308,-0.159026777223,-0.0253491297005,-0.154669646372
900000000.0,-0.0318627439917,-0.172832447534,0.968027130677,-0.177736028725,0.968027130677,-0.177736028725,-0.0318627439917,-0.172832447534
1000000000.0,-0.0390399940693,-0.190602342261,0.960846801601,-0.19605289566,0.960846801601,-0.19605289566,-0.0390399940693,-0.190602342261
1100000000.0,-0.0468500791692,-0.207946233758,0.95303334458,-0.213944308178,0.95303334458,-0.213944308178,-0.0468500791692,-0.207946233758
1200000000.0,-0.0552602459132,-0.224833943346,0.944619510199,-0.231380112344,0.944619510199,-0.231380112344,-0.0552602459132,-0.224833943346
1300000000.0,-0.0642361087468,-0.241238324745,0.935639681545,-0.248333184651,0.935639681545,-0.248333184651,-0.0642361087468,-0.241238324745
1400000000.0,-0.0737419733225,-0.257135338907,0.926129550728,-0.264779507047,0.926129550728,-0.264779507047,-0.0737419733225,-0.257135338907
1500000000.0,-0.0837411576289,-0.272504090579,0.916125797687,-0.280698203665,0.916125797687,-0.280698203665,-0.0837411576289,-0.272504090579
1600000000.0,-0.0941963060746,-0.287326828449,0.905665776064,-0.296071541106,0.905665776064,-0.296071541106,-0.0941963060746,-0.287326828449
1700000000.0,-0.105069692236,-0.301588911309,0.894787210425,-0.310884894735,0.894787210425,-0.310884894735,-0.105069692236,-0.301588911309
1800000000.0,-0.116323506547,-0.315278743186,0.883527908547,-0.32512668392,0.883527908547,-0.32512668392,-0.116323506547,-0.315278743186
1900000000.0,-0.127920125805,-0.328387680706,0.871925491893,-0.338788279497,0.871925491893,-0.338788279497,-0.127920125805,-0.328387680706
2000000000.0,-0.139822362013,-0.340909916256,0.860017146763,-0.351863887021,0.860017146763,-0.351863887021,-0.139822362013,-0.340909916256
2100000000.0,-0.151993688676,-0.352842340595,0.847839397986,-0.364350409464,0.847839397986,-0.364350409464,-0.151993688676,-0.352842340595
2200000000.0,-0.164398443305,-0.364184388655,0.835427906407,-0.376247293085,0.835427906407,-0.376247293085,-0.164398443305,-0.364184388655
2300000000.0,-0.177002005419,-0.374937872155,0.82281729088,-0.387556360119,0.82281729088,-0.387556360119,-0.177002005419,-0.374937872155
2400000000.0,-0.189770949882,-0.385106802572,0.810040974932,-0.398281631808,0.810040974932,-0.398281631808,-0.189770949882,-0.385106802572
2500000000.0,-0.20267317586,-0.394697207765,0.797131057797,-0.408429145085,0.797131057797,-0.408429145085,-0.20267317586,-0.394697207765
2600000000.0,-0.215678012081,-0.403716945325,0.784118209155,-0.418006765977,0.784118209155,-0.418006765977,-0.215678012081,-0.403716945325
2700000000.0,-0.228756299432,-0.412175515414,0.771031586531,-0.427024002497,0.771031586531,-0.427024002497,-0.228756299432,-0.412175515414
2800000000.0,-0.241880452184,-0.420083875555,0.757898774076,-0.435491819481,0.757898774076,-0.435491819481,-0.241880452184,-0.420083875555
2900000000.0,-0.255024499336,-0.427454259511,0.74474574121,-0.443422457508,0.74474574121,-0.443422457508,-0.255024499336,-0.427454259511
3000000000.0,-0.268164107738,-0.434300002044,0.731596819509,-0.450829257702,0.731596819509,-0.450829257702,-0.268164107738,-0.434300002044
3100000000.0,-0.281276588718,-0.440635371048,0.718474696071,-0.457726493901,0.718474696071,-0.457726493901,-0.281276588718,-0.440635371048
3200000000.0,-0.294340889998,-0.44647540823,0.705400421598,-0.464129213378,0.705400421598,-0.464129213378,-0.294340889998,-0.44647540823
3300000000.0,-0.307337574688,-0.45183577924,0.692393431405,-0.470053086995,0.692393431405,-0.470053086995,-0.307337574688,-0.45183577924
3400000000.0,-0.3202487891,-0.45673263386,0.679471577606,-0.475514269435,0.679471577606,-0.475514269435,-0.3202487891,-0.45673263386
3500000000.0,-0.333058221057,-0.461182476676,0.666651170801,-0.480529269895,0.666651170801,-0.480529269895,-0.333058221057,-0.461182476676
3600000000.0,-0.345751050318,-0.465202048393,0.65394702965,-0.485114833425,0.65394702965,-0.485114833425,-0.345751050318,-0.465202048393
3700000000.0,-0.358313892599,-0.468808217808,0.641372536858,-0.489287832936,0.641372536858,-0.489287832936,-0.358313892599,-0.468808217808
3800000000.0,-0.370734738571,-0.472017884299,0.628939700169,-0.493065171705,0.628939700169,-0.493065171705,-0.370734738571,-0.472017884299
3900000000.0,-0.383002889104,-0.474847890547,0.616659217126,-0.496463696124,0.616659217126,-0.496463696124,-0.383002889104,-0.474847890547
4000000000.0,-0.395108887884,-0.477314945129,0.604540542453,-0.499500118306,0.604540542453,-0.499500118306,-0.395108887884,-0.477314945129
4100000000.0,-0.407044452415,-0.479435554499,0.592591957051,-0.502190948096,0.592591957051,-0.502190948096,-0.407044452415,-0.479435554499
4200000000.0,-0.418802404292,-0.481225963881,0.580820637729,-0.504552433969,0.580820637729,-0.504552433969,-0.418802404292,-0.481225963881
4300000000.0,-0.430376599515,-0.482702106479,0.569232726881,-0.506600512272,0.569232726881,-0.506600512272,-0.430376599515,-0.482702106479
4400000000.0,-0.441761859503,-0.483879560453,0.557833401481,-0.5083507642,0.557833401481,-0.5083507642,-0.441761859503,-0.483879560453
4500000000.0,-0.452953903358,-0.484773513047,0.546626940815,-0.509818379951,0.546626940815,-0.509818379951,-0.452953903358,-0.484773513047
4600000000.0,-0.46394928184,-0.485398731284,0.535616792502,-0.511018129427,0.535616792502,-0.511018129427,-0.46394928184,-0.485398731284
4700000000.0,-0.474745313426,-0.48576953864,0.524805636444,-0.511964338925,0.524805636444,-0.511964338925,-0.474745313426,-0.48576953864
4800000000.0,-0.485340022734,-0.485899797124,0.514195446389,-0.512670873225,0.514195446389,-0.512670873225,-0.485340022734,-0.485899797124
4900000000.0,-0.495732081552,-0.48580289422,0.503787548914,-0.513151122546,0.503787548914,-0.513151122546,-0.495732081552,-0.48580289422
5000000000.0,-0.505920752613,-0.48549173416,0.493582679641,-0.51341799383,0.493582679641,-0.51341799383,-0.505920752613,-0.48549173416
5100000000.0,-0.515905836233,-0.484978733049,0.483581036603,-0.513483905871,0.483581036603,-0.513483905871,-0.515905836233,-0.484978733049
5200000000.0,-0.525687619871,-0.48427581736,0.473782330681,-0.513360787826,0.473782330681,-0.513360787826,-0.525687619871,-0.48427581736
5300000000.0,-0.535266830628,-0.48339442539,0.464185833108,-0.513060080675,0.464185833108,-0.513060080675,-0.535266830628,-0.48339442539
5400000000.0,-0.544644590668,-0.482345511264,0.454790420044,-0.512592741231,0.454790420044,-0.512592741231,-0.544644590668,-0.482345511264
5500000000.0,-0.553822375527,-0.481139551129,0.44559461427,-0.511969248348,0.44559461427,-0.511969248348,-0.553822375527,-0.481139551129
5600000000.0,-0.56280197524,-0.479786551214,0.436596624056,-0.511199610978,0.436596624056,-0.511199610978,-0.56280197524,-0.479786551214
5700000000.0,-0.571585458209,-0.478296057431,0.4277943793,-0.510293377787,0.4277943793,-0.510293377787,-0.571585458209,-0.478296057431
5800000000.0,-0.580175137705,-0.476677166279,0.419185565016,-0.509259648058,0.419185565016,-0.509259648058,-0.580175137705,-0.476677166279
5900000000.0,-0.588573540914,-0.47493853677,0.410767652299,-0.508107083628,0.410767652299,-0.508107083628,-0.588573540914,-0.47493853677
6000000000.0,-0.596783380391,-0.473088403194,0.40253792686,-0.506843921651,0.40253792686,-0.506843921651,-0.596783380391,-0.473088403194
6100000000.0,-0.604807527821,-0.471134588502,0.394493515269,-0.50547798799,0.394493515269,-0.50547798799,-0.604807527821,-0.471134588502
6200000000.0,-0.612648989959,-0.469084518151,0.386631409019,-0.504016711069,0.386631409019,-0.504016711069,-0.612648989959,-0.469084518151
6300000000.0,-0.620310886613,-0.466945234265,0.378948486533,-0.502467136027,0.378948486533,-0.502467136027,-0.620310886613,-0.466945234265
6400000000.0,-0.627796430565,-0.464723409966,0.371441533252,-0.500835939065,0.371441533252,-0.500835939065,-0.627796430565,-0.464723409966
6500000000.0,-0.635108909303,-0.462425363773,0.364107259899,-0.49912944184,0.364107259899,-0.49912944184,-0.635108909303,-0.462425363773
6600000000.0,-0.64225166843,-0.460057073979,0.356942319065,-0.497353625847,0.356942319065,-0.497353625847,-0.64225166843,-0.460057073979
6700000000.0,-0.649228096665,-0.4576241929,0.349943320217,-0.495514146672,0.349943320217,-0.495514146672,-0.649228096665,-0.4576241929
6800000000.0,-0.656041612292,-0.455132060952,0.34310684324,-0.49361634807,0.34310684324,-0.49361634807,-0.656041612292,-0.455132060952
6900000000.0,-0.662695650979,-0.452585720479,0.336429450625,-0.491665275794,0.336429450625,-0.491665275794,-0.662695650979,-0.452585720479
7000000000.0,-0.669193654843,-0.449989929292,0.329907698397,-0.48966569114,0.329907698397,-0.48966569114,-0.669193654843,-0.449989929292
7100000000.0,-0.675539062679,-0.447349173878,0.323538145888,-0.487622084155,0.323538145888,-0.487622084155,-0.675539062679,-0.447349173878
7200000000.0,-0.681735301259,-0.44466768225,0.317317364441,-0.485538686486,0.317317364441,-0.485538686486,-0.681735301259,-0.44466768225
7300000000.0,-0.687785777608,-0.441949436406,0.311241945129,-0.483419483846,0.311241945129,-0.483419483846,-0.687785777608,-0.441949436406
7400000000.0,-0.693693872185,-0.439198184389,0.305308505577,-0.481268228073,0.305308505577,-0.481268228073,-0.693693872185,-0.439198184389
7500000000.0,-0.699462932887,-0.436417451927,0.299513695953,-0.47908844877,0.299513695953,-0.47908844877,-0.699462932887,-0.436417451927
7600000000.0,-0.705096269809,-0.433610553653,0.293854204214,-0.476883464527,0.293854204214,-0.476883464527,-0.705096269809,-0.433610553653
7700000000.0,-0.710597150693,-0.430780603889,0.288326760652,-0.474656393707,0.288326760652,-0.474656393707,-0.710597150693,-0.430780603889
7800000000.0,-0.715968797002,-0.427930527008,0.282928141824,-0.472410164804,0.282928141824,-0.472410164804,-0.715968797002,-0.427930527008
7900000000.0,-0.721214380563,-0.425063067358,0.277655173899,-0.470147526379,0.277655173899,-0.470147526379,-0.721214380563,-0.425063067358
8000000000.0,-0.726337020734,-0.422180798777,0.272504735504,-0.46787105656,0.272504735504,-0.46787105656,-0.726337020734,-0.422180798777
8100000000.0,-0.73133978203,-0.419286133677,0.267473760088,-0.465583172139,0.267473760088,-0.465583172139,-0.73133978203,-0.419286133677
8200000000.0,-0.736225672181,-0.416381331726,0.262559237868,-0.463286137252,0.262559237868,-0.463286137252,-0.736225672181,-0.416381331726
8300000000.0,-0.740997640564,-0.413468508134,0.257758217395,-0.460982071659,0.257758217395,-0.460982071659,-0.740997640564,-0.413468508134
8400000000.0,-0.745658576984,-0.410549641542,0.253067806771,-0.458672958641,0.253067806771,-0.458672958641,-0.745658576984,-0.410549641542
8500000000.0,-0.750211310762,-0.407626581542,0.248485174564,-0.456360652517,0.248485174564,-0.456360652517,-0.750211310762,-0.407626581542
8600000000.0,-0.754658610099,-0.404701055827,0.244007550445,-0.454046885794,0.244007550445,-0.454046885794,-0.754658610099,-0.404701055827
8700000000.0,-0.759003181686,-0.40177467699,0.239632225571,-0.451733275967,0.239632225571,-0.451733275967,-0.759003181686,-0.40177467699
8800000000.0,-0.763247670535,-0.398848948984,0.235356552758,-0.449421331978,0.235356552758,-0.449421331978,-0.763247670535,-0.398848948984
8900000000.0,-0.767394660005,-0.395925273251,0.231177946458,-0.447112460349,0.231177946458,-0.447112460349,-0.767394660005,-0.395925273251
9000000000.0,-0.771446672002,-0.393004954545,0.227093882551,-0.444807970999,0.227093882551,-0.444807970999,-0.771446672002,-0.393004954545
9100000000.0,-0.775406167326,-0.390089206447,0.223101898001,-0.442509082762,0.223101898001,-0.442509082762,-0.775406167326,-0.390089206447
9200000000.0,-0.779275546162,-0.387179156594,0.21919959037,-0.44021692862,0.21919959037,-0.44021692862,-0.779275546162,-0.387179156594
9300000000.0,-0.783057148675,-0.384275851633,0.215384617214,-0.437932560649,0.215384617214,-0.437932560649,-0.783057148675,-0.384275851633
9400000000.0,-0.786753255718,-0.381380261915,0.211654695379,-0.435656954719,0.211654695379,-0.435656954719,-0.786753255718,-0.381380261915
9500000000.0,-0.790366089619,-0.37849328593,0.208007600213,-0.433391014926,0.208007600213,-0.433391014926,-0.790366089619,-0.37849328593
9600000000.0,-0.793897815051,-0.375615754512,0.204441164699,-0.4311355778,0.204441164699,-0.4311355778,-0.793897815051,-0.375615754512
9700000000.0,-0.797350539956,-0.37274843481,0.200953278521,-0.428891416272,0.200953278521,-0.428891416272,-0.797350539956,-0.37274843481
9800000000.0,-0.800726316534,-0.369892034047,0.197541887088,-0.426659243437,0.197541887088,-0.426659243437,-0.800726316534,-0.369892034047
9900000000.0,-0.804027142265,-0.367047203068,0.194204990501,-0.424439716098,0.194204990501,-0.424439716098,-0.804027142265,-0.367047203068
10000000000.0,-0.807254960976,-0.364214539699,0.19094064249,-0.422233438126,0.19094064249,-0.422233438126,-0.807254960976,-0.364214539699
