freq (GHz),S11_real,S11_imag,S21_real,S21_imag,S12_real,S12_imag,S22_real,S22_imag
100000000.0,0.0662336715074,0.00561907991106,0.933762048688,-0.00740407843813,0.933762048688,-0.00740407843813,0.0662336715074,0.00561907991106
200000000.0,0.0667748580189,0.0112249509187,0.933214319653,-0.0147949817506,0.933214319653,-0.0147949817506,0.0667748580189,0.0112249509187
300000000.0,0.0672944870614,0.0168204514638,0.93268488403,-0.0221755760196,0.93268488403,-0.0221755760196,0.0672944870614,0.0168204514638
400000000.0,0.0678463624298,0.0224053970043,0.932119936757,-0.0295457013906,0.932119936757,-0.0295457013906,0.0678463624298,0.0224053970043
500000000.0,0.0684510771353,0.0279789059944,0.931498883485,-0.0369044995099,0.931498883485,-0.0369044995099,0.0684510771353,0.0279789059944
600000000.0,0.0691189937953,0.0335397935771,0.930811360149,-0.044250807729,0.930811360149,-0.044250807729,0.0691189937953,0.0335397935771
700000000.0,0.0698560894209,0.0390867137499,0.930051388156,-0.0515833015332,0.930051388156,-0.0515833015332,0.0698560894209,0.0390867137499
800000000.0,0.0706660894428,0.0446182259863,0.92921524035,-0.0589005613203,0.92921524035,-0.0589005613203,0.0706660894428,0.0446182259863
900000000.0,0.0715514182997,0.0501328316244,0.928300490419,-0.0662011088927,0.928300490419,-0.0662011088927,0.0715514182997,0.0501328316244
1000000000.0,0.0725136815619,0.0556289959491,0.927305530766,-0.0734834296134,0.927305530766,-0.0734834296134,0.0725136815619,0.0556289959491
1100000000.0,0.0735539341942,0.0611051626954,0.926229304245,-0.0807459869635,0.926229304245,-0.0807459869635,0.0735539341942,0.0611051626954
1200000000.0,0.0746728406567,0.0665597641885,0.925071144058,-0.0879872327238,0.925071144058,-0.0879872327238,0.0746728406567,0.0665597641885
1300000000.0,0.0758707758833,0.071991228807,0.923830672775,-0.0952056144708,0.923830672775,-0.0952056144708,0.0758707758833,0.071991228807
1400000000.0,0.0771478919098,0.0773979867149,0.922507735708,-0.102399581336,0.922507735708,-0.102399581336,0.0771478919098,0.0773979867149
1500000000.0,0.078504163532,0.0827784744266,0.921102355247,-0.10956758859,0.921102355247,-0.10956758859,0.078504163532,0.0827784744266
1600000000.0,0.0799394206332,0.0881311385522,0.91961469854,-0.116708101413,0.91961469854,-0.116708101413,0.0799394206332,0.0881311385522
1700000000.0,0.0814533717394,0.0934544389492,0.91804505393,-0.123819598053,0.91804505393,-0.123819598053,0.0814533717394,0.0934544389492
1800000000.0,0.0830456216354,0.098746851431,0.916393813345,-0.130900572555,0.916393813345,-0.130900572555,0.0830456216354,0.098746851431
1900000000.0,0.0847156848555,0.104006870133,0.914661458803,-0.137949537135,0.914661458803,-0.137949537135,0.0847156848555,0.104006870133
2000000000.0,0.0864629962473,0.109233009609,0.912848551851,-0.144965024288,0.912848551851,-0.144965024288,0.0864629962473,0.109233009609
2100000000.0,0.088286919419,0.114423806708,0.910955725117,-0.151945588674,0.910955725117,-0.151945588674,0.088286919419,0.114423806708
2200000000.0,0.0901867536309,0.119577822273,0.908983675417,-0.158889808823,0.908983675417,-0.158889808823,0.0901867536309,0.119577822273
2300000000.0,0.0921617395242,0.124693642679,0.90693315803,-0.165796288683,0.90693315803,-0.165796288683,0.0921617395242,0.124693642679
2400000000.0,0.0942110639727,0.129769881238,0.904804981842,-0.172663659032,0.904804981842,-0.172663659032,0.0942110639727,0.129769881238
2500000000.0,0.0963338642614,0.134805179494,0.902600005171,-0.179490578774,0.902600005171,-0.179490578774,0.0963338642614,0.134805179494
2600000000.0,0.0985292317441,0.139798208398,0.900319132107,-0.186275736124,0.900319132107,-0.186275736124,0.0985292317441,0.139798208398
2700000000.0,0.100796215095,0.144747669394,0.897963309262,-0.193017849699,0.897963309262,-0.193017849699,0.100796215095,0.144747669394
2800000000.0,0.103133823238,0.149652295413,0.89553352284,-0.199715669514,0.89553352284,-0.199715669514,0.103133823238,0.149652295413
2900000000.0,0.10554102802,0.154510851781,0.893030795965,-0.206367977895,0.893030795965,-0.206367977895,0.10554102802,0.154510851781
3000000000.0,0.108016766677,0.15932213705,0.890456186213,-0.212973590316,0.890456186213,-0.212973590316,0.108016766677,0.15932213705
3100000000.0,0.110559944134,0.164084983749,0.887810783314,-0.219531356152,0.887810783314,-0.219531356152,0.110559944134,0.164084983749
3200000000.0,0.113169435164,0.168798259067,0.885095706988,-0.226040159363,0.885095706988,-0.226040159363,0.113169435164,0.168798259067
3300000000.0,0.115844086438,0.17346086546,0.882312104903,-0.232498919111,0.882312104903,-0.232498919111,0.115844086438,0.17346086546
3400000000.0,0.118582718475,0.178071741202,0.879461150722,-0.238906590306,0.879461150722,-0.238906590306,0.118582718475,0.178071741202
3500000000.0,0.121384127506,0.182629860854,0.876544042232,-0.245262164084,0.876544042232,-0.245262164084,0.121384127506,0.182629860854
3600000000.0,0.124247087282,0.187134235685,0.873561999547,-0.251564668229,0.873561999547,-0.251564668229,0.124247087282,0.187134235685
3700000000.0,0.127170350801,0.191583914027,0.870516263371,-0.257813167526,0.870516263371,-0.257813167526,0.127170350801,0.191583914027
3800000000.0,0.130152652001,0.195977981561,0.867408093314,-0.264006764056,0.867408093314,-0.264006764056,0.130152652001,0.195977981561
3900000000.0,0.133192707384,0.200315561561,0.864238766258,-0.270144597441,0.864238766258,-0.270144597441,0.133192707384,0.200315561561
4000000000.0,0.136289217612,0.204595815072,0.86100957477,-0.276225845018,0.86100957477,-0.276225845018,0.136289217612,0.204595815072
4100000000.0,0.139440869049,0.208817941028,0.857721825552,-0.28224972197,0.857721825552,-0.28224972197,0.139440869049,0.208817941028
4200000000.0,0.142646335274,0.212981176334,0.854376837935,-0.288215481397,0.854376837935,-0.288215481397,0.142646335274,0.212981176334
4300000000.0,0.145904278546,0.217084795878,0.850975942406,-0.294122414342,0.850975942406,-0.294122414342,0.145904278546,0.217084795878
4400000000.0,0.149213351242,0.221128112504,0.847520479178,-0.299969849756,0.847520479178,-0.299969849756,0.149213351242,0.221128112504
4500000000.0,0.152572197255,0.225110476933,0.844011796783,-0.30575715443,0.844011796783,-0.30575715443,0.152572197255,0.225110476933
4600000000.0,0.155979453361,0.22903127764,0.840451250715,-0.311483732864,0.840451250715,-0.311483732864,0.155979453361,0.22903127764
4700000000.0,0.159433750546,0.232889940678,0.83684020209,-0.317149027103,0.83684020209,-0.317149027103,0.159433750546,0.232889940678
4800000000.0,0.162933715306,0.236685929474,0.833180016357,-0.32275251652,0.833180016357,-0.32275251652,0.162933715306,0.236685929474
4900000000.0,0.166477970909,0.240418744562,0.829472062029,-0.328293717569,0.829472062029,-0.328293717569,0.166477970909,0.240418744562
5000000000.0,0.170065138626,0.244087923298,0.825717709455,-0.333772183487,0.825717709455,-0.333772183487,0.170065138626,0.244087923298
5100000000.0,0.173693838923,0.247693039521,0.821918329623,-0.33918750396,0.821918329623,-0.33918750396,0.173693838923,0.247693039521
5200000000.0,0.177362692628,0.251233703183,0.818075293,-0.344539304759,0.818075293,-0.344539304759,0.177362692628,0.251233703183
5300000000.0,0.181070322049,0.254709559946,0.814189968404,-0.349827247332,0.814189968404,-0.349827247332,0.181070322049,0.254709559946
5400000000.0,0.184815352076,0.258120290742,0.810263721912,-0.35505102837,0.810263721912,-0.35505102837,0.184815352076,0.258120290742
5500000000.0,0.188596411234,0.261465611304,0.806297915798,-0.360210379336,0.806297915798,-0.360210379336,0.188596411234,0.261465611304
5600000000.0,0.192412132702,0.264745271669,0.802293907516,-0.36530506597,0.802293907516,-0.36530506597,0.192412132702,0.264745271669
5700000000.0,0.196261155308,0.26795905565,0.798253048707,-0.370334887763,0.798253048707,-0.370334887763,0.196261155308,0.26795905565
5800000000.0,0.200142124475,0.27110678028,0.794176684249,-0.375299677402,0.794176684249,-0.375299677402,0.200142124475,0.27110678028
5900000000.0,0.20405369314,0.27418829524,0.790066151338,-0.3801993002,0.790066151338,-0.3801993002,0.20405369314,0.27418829524
6000000000.0,0.207994522635,0.277203482257,0.785922778609,-0.38503365349,0.785922778609,-0.38503365349,0.207994522635,0.277203482257
6100000000.0,0.211963283533,0.280152254483,0.781747885288,-0.38980266601,0.781747885288,-0.38980266601,0.211963283533,0.280152254483
6200000000.0,0.215958656455,0.283034555853,0.77754278038,-0.394506297264,0.77754278038,-0.394506297264,0.215958656455,0.283034555853
6300000000.0,0.219979332849,0.285850360433,0.773308761897,-0.399144536863,0.773308761897,-0.399144536863,0.219979332849,0.285850360433
6400000000.0,0.224024015725,0.28859967174,0.769047116117,-0.403717403853,0.769047116117,-0.403717403853,0.224024015725,0.28859967174
6500000000.0,0.228091420362,0.291282522059,0.764759116876,-0.408224946028,0.764759116876,-0.408224946028,0.228091420362,0.291282522059
6600000000.0,0.232180274976,0.293898971737,0.760446024905,-0.412667239233,0.760446024905,-0.412667239233,0.232180274976,0.293898971737
6700000000.0,0.236289321351,0.296449108477,0.75610908719,-0.417044386646,0.75610908719,-0.417044386646,0.236289321351,0.296449108477
6800000000.0,0.240417315444,0.298933046613,0.751749536371,-0.421356518064,0.751749536371,-0.421356518064,0.240417315444,0.298933046613
6900000000.0,0.244563027949,0.301350926377,0.74736859018,-0.42560378917,0.74736859018,-0.42560378917,0.244563027949,0.301350926377
7000000000.0,0.248725244824,0.303702913166,0.742967450903,-0.429786380795,0.742967450903,-0.429786380795,0.248725244824,0.303702913166
7100000000.0,0.252902767798,0.3059891968,0.738547304886,-0.43390449818,0.738547304886,-0.43390449818,0.252902767798,0.3059891968
7200000000.0,0.257094414832,0.308209990768,0.734109322063,-0.437958370227,0.734109322063,-0.437958370227,0.257094414832,0.308209990768
7300000000.0,0.26129902055,0.310365531486,0.729654655524,-0.44194824875,0.729654655524,-0.44194824875,0.26129902055,0.310365531486
7400000000.0,0.265515436649,0.312456077542,0.725184441111,-0.445874407726,0.725184441111,-0.445874407726,0.265515436649,0.312456077542
7500000000.0,0.269742532263,0.314481908941,0.720699797049,-0.449737142539,0.720699797049,-0.449737142539,0.269742532263,0.314481908941
7600000000.0,0.273979194305,0.316443326358,0.716201823599,-0.453536769233,0.716201823599,-0.453536769233,0.273979194305,0.316443326358
7700000000.0,0.278224327781,0.318340650384,0.711691602754,-0.457273623762,0.711691602754,-0.457273623762,0.278224327781,0.318340650384
7800000000.0,0.282476856065,0.320174220783,0.707170197948,-0.460948061241,0.707170197948,-0.460948061241,0.282476856065,0.320174220783
7900000000.0,0.28673572116,0.321944395743,0.702638653811,-0.464560455204,0.702638653811,-0.464560455204,0.28673572116,0.321944395743
8000000000.0,0.290999883916,0.323651551141,0.698097995934,-0.468111196867,0.698097995934,-0.468111196867,0.290999883916,0.323651551141
8100000000.0,0.295268324232,0.325296079807,0.693549230676,-0.471600694394,0.693549230676,-0.471600694394,0.295268324232,0.325296079807
8200000000.0,0.299540041227,0.326878390798,0.688993344988,-0.47502937217,0.688993344988,-0.47502937217,0.299540041227,0.326878390798
8300000000.0,0.303814053387,0.32839890868,0.684431306267,-0.478397670081,0.684431306267,-0.478397670081,0.303814053387,0.32839890868
8400000000.0,0.308089398687,0.329858072811,0.679864062231,-0.481706042806,0.679864062231,-0.481706042806,0.308089398687,0.329858072811
8500000000.0,0.312365134688,0.331256336642,0.675292540821,-0.484954959108,0.675292540821,-0.484954959108,0.312365134688,0.331256336642
8600000000.0,0.316640338613,0.332594167022,0.670717650125,-0.488144901147,0.670717650125,-0.488144901147,0.316640338613,0.332594167022
8700000000.0,0.3209141074,0.33387204351,0.666140278323,-0.49127636379,0.666140278323,-0.49127636379,0.3209141074,0.33387204351
8800000000.0,0.32518555773,0.335090457706,0.661561293656,-0.494349853943,0.661561293656,-0.494349853943,0.32518555773,0.335090457706
8900000000.0,0.329453826043,0.336249912585,0.656981544415,-0.497365889884,0.656981544415,-0.497365889884,0.329453826043,0.336249912585
9000000000.0,0.333718068524,0.337350921847,0.652401858945,-0.500325000615,0.652401858945,-0.500325000615,0.333718068524,0.337350921847
9100000000.0,0.337977461077,0.338394009276,0.647823045676,-0.503227725221,0.647823045676,-0.503227725221,0.337977461077,0.338394009276
9200000000.0,0.342231199278,0.339379708113,0.643245893167,-0.506074612242,0.643245893167,-0.506074612242,0.342231199278,0.339379708113
9300000000.0,0.346478498311,0.34030856044,0.638671170167,-0.508866219063,0.638671170167,-0.508866219063,0.346478498311,0.34030856044
9400000000.0,0.350718592887,0.34118111658,0.634099625698,-0.511603111306,0.634099625698,-0.511603111306,0.350718592887,0.34118111658
9500000000.0,0.354950737147,0.341997934508,0.629531989146,-0.514285862245,0.629531989146,-0.514285862245,0.354950737147,0.341997934508
9600000000.0,0.359174204556,0.342759579272,0.624968970371,-0.516915052234,0.624968970371,-0.516915052234,0.359174204556,0.342759579272
9700000000.0,0.363388287768,0.343466622435,0.620411259837,-0.519491268137,0.620411259837,-0.519491268137,0.363388287768,0.343466622435
9800000000.0,0.367592298493,0.344119641526,0.615859528741,-0.522015102788,0.615859528741,-0.522015102788,0.367592298493,0.344119641526
9900000000.0,0.371785567347,0.344719219505,0.611314429172,-0.524487154455,0.611314429172,-0.524487154455,0.371785567347,0.344719219505
10000000000.0,0.375967443679,0.345265944242,0.606776594268,-0.526908026318,0.606776594268,-0.526908026318,0.375967443679,0.345265944242
