freq (GHz),S11_real,S11_imag,S21_real,S21_imag,S12_real,S12_imag,S22_real,S22_imag
100000000.0,0.0275638571364,0.00164087929898,0.972433929788,-0.00252252752721,0.972433929788,-0.00252252752721,0.0275638571364,0.00164087929898
200000000.0,0.0277529974127,0.00328019071344,0.972242791681,-0.00504348865962,0.972242791681,-0.00504348865962,0.0277529974127,0.00328019071344
300000000.0,0.0279026678278,0.00491849916997,0.972090338578,-0.00756345017012,0.972090338578,-0.00756345017012,0.0279026678278,0.00491849916997
400000000.0,0.0280362819122,0.00655596748463,0.971953156865,-0.0100825764573,0.971953156865,-0.0100825764573,0.0280362819122,0.00655596748463
500000000.0,0.0281628761015,0.00819266494501,0.97182221003,-0.0126009382602,0.97182221003,-0.0126009382602,0.0281628761015,0.00819266494501
600000000.0,0.0282870676538,0.00982861942658,0.971692880738,-0.0151185648202,0.971692880738,-0.0151185648202,0.0282870676538,0.00982861942658
700000000.0,0.0284115885773,0.0114638361078,0.971562436904,-0.0176354626209,0.971562436904,-0.0176354626209,0.0284115885773,0.0114638361078
800000000.0,0.0285382112724,0.0130983061489,0.971429106048,-0.0201516240794,0.971429106048,-0.0201516240794,0.0285382112724,0.0130983061489
900000000.0,0.0286681610328,0.0147320113517,0.971291662795,-0.022667032217,0.971291662795,-0.022667032217,0.0286681610328,0.0147320113517
1000000000.0,0.0288023253109,0.0163649269191,0.971149219607,-0.0251816634235,0.971149219607,-0.0251816634235,0.0288023253109,0.0163649269191
1100000000.0,0.0289413701415,0.0179970232061,0.971001110358,-0.0276954892145,0.971001110358,-0.0276954892145,0.0289413701415,0.0179970232061
1200000000.0,0.0290858095731,0.019628266894,0.970846820907,-0.0302084774079,0.970846820907,-0.0302084774079,0.0290858095731,0.019628266894
1300000000.0,0.0292360493849,0.0212586218094,0.970685945375,-0.0327205929468,0.970685945375,-0.0327205929468,0.0292360493849,0.0212586218094
1400000000.0,0.0293924158459,0.0228880495166,0.970518157391,-0.0352317984935,0.970518157391,-0.0352317984935,0.0293924158459,0.0228880495166
1500000000.0,0.0295551753265,0.024516509758,0.970343190477,-0.0377420548718,0.970343190477,-0.0377420548718,0.0295551753265,0.024516509758
1600000000.0,0.0297245480842,0.0261439607888,0.970160824264,-0.0402513214037,0.970160824264,-0.0402513214037,0.0297245480841,0.0261439607888
1700000000.0,0.0299007182056,0.0277703596379,0.969970874548,-0.0427595561708,0.969970874548,-0.0427595561708,0.0299007182056,0.0277703596379
1800000000.0,0.0300838409381,0.029395662313,0.969773185959,-0.0452667162217,0.969773185959,-0.0452667162217,0.0300838409381,0.029395662313
1900000000.0,0.0302740482007,0.0310198239666,0.969567626453,-0.0477727577378,0.969567626453,-0.0477727577378,0.0302740482007,0.0310198239666
2000000000.0,0.0304714527992,0.0326427990305,0.969354083091,-0.0502776361689,0.969354083091,-0.0502776361689,0.0304714527992,0.0326427990305
2100000000.0,0.0306761516972,0.0342645413267,0.969132458775,-0.0527813063454,0.969132458775,-0.0527813063454,0.0306761516972,0.0342645413267
2200000000.0,0.0308882285905,0.0358850041605,0.968902669666,-0.0552837225712,0.968902669666,-0.0552837225712,0.0308882285905,0.0358850041605
2300000000.0,0.0311077559569,0.0375041403979,0.968664643141,-0.0577848387026,0.968664643141,-0.0577848387026,0.0311077559569,0.0375041403979
2400000000.0,0.031334796706,0.0391219025325,0.968418316138,-0.0602846082148,0.968418316138,-0.0602846082148,0.031334796706,0.0391219025325
2500000000.0,0.0315694055219,0.0407382427426,0.968163633819,-0.0627829842599,0.968163633819,-0.0627829842599,0.0315694055219,0.0407382427426
2600000000.0,0.0318116299633,0.04235311294,0.967900548462,-0.065279919716,0.967900548462,-0.065279919716,0.0318116299633,0.04235311294
2700000000.0,0.032061511375,0.0439664648131,0.967629018556,-0.0677753672311,0.967629018556,-0.0677753672311,0.032061511375,0.0439664648131
2800000000.0,0.0323190856473,0.0455782498649,0.967349008041,-0.0702692792606,0.967349008041,-0.0702692792606,0.0323190856473,0.0455782498649
2900000000.0,0.0325843838533,0.0471884194459,0.967060485666,-0.0727616081013,0.967060485666,-0.0727616081013,0.0325843838533,0.0471884194459
3000000000.0,0.0328574327879,0.0487969247839,0.966763424457,-0.0752523059207,0.966763424457,-0.0752523059207,0.0328574327879,0.0487969247839
3100000000.0,0.0331382554259,0.0504037170104,0.966457801252,-0.0777413247846,0.966457801252,-0.0777413247846,0.0331382554259,0.0504037170104
3200000000.0,0.033426871314,0.0520087471843,0.966143596313,-0.0802286166803,0.966143596313,-0.0802286166803,0.033426871314,0.0520087471843
3300000000.0,0.0337232969071,0.0536119663135,0.965820792989,-0.0827141335386,0.965820792989,-0.0827141335386,0.0337232969071,0.0536119663135
3400000000.0,0.0340275458596,0.0552133253743,0.965489377425,-0.0851978272536,0.965489377425,-0.0851978272536,0.0340275458596,0.0552133253743
3500000000.0,0.034339629278,0.0568127753294,0.965149338309,-0.0876796497006,0.965149338309,-0.0876796497006,0.034339629278,0.0568127753294
3600000000.0,0.0346595559409,0.0584102671439,0.96480066665,-0.0901595527527,0.96480066665,-0.0901595527527,0.0346595559409,0.0584102671439
3700000000.0,0.0349873324916,0.0600057518006,0.96444335559,-0.0926374882955,0.96444335559,-0.0926374882955,0.0349873324916,0.0600057518006
3800000000.0,0.0353229636082,0.0615991803136,0.96407740023,-0.0951134082419,0.96407740023,-0.0951134082419,0.0353229636082,0.0615991803136
3900000000.0,0.0356664521525,0.0631905037415,0.963702797481,-0.0975872645444,0.963702797481,-0.0975872645444,0.0356664521525,0.0631905037415
4000000000.0,0.0360177993026,0.0647796731989,0.963319545936,-0.100059009208,0.963319545936,-0.100059009208,0.0360177993026,0.0647796731989
4100000000.0,0.0363770046705,0.0663666398681,0.962927645746,-0.1025285943,0.962927645746,-0.1025285943,0.0363770046705,0.0663666398681
4200000000.0,0.0367440664074,0.0679513550093,0.96252709852,-0.104995971962,0.96252709852,-0.104995971962,0.0367440664074,0.0679513550093
4300000000.0,0.0371189812969,0.0695337699702,0.962117907228,-0.10746109442,0.962117907228,-0.10746109442,0.0371189812969,0.0695337699702
4400000000.0,0.0375017448394,0.0711138361959,0.961700076119,-0.109923913993,0.961700076119,-0.109923913993,0.0375017448394,0.0711138361959
4500000000.0,0.0378923513279,0.0726915052371,0.961273610645,-0.112384383102,0.961273610645,-0.112384383102,0.0378923513279,0.0726915052371
4600000000.0,0.0382907939163,0.0742667287587,0.960838517392,-0.114842454278,0.960838517392,-0.114842454278,0.0382907939163,0.0742667287587
4700000000.0,0.038697064681,0.0758394585475,0.960394804018,-0.117298080171,0.960394804018,-0.117298080171,0.038697064681,0.0758394585475
4800000000.0,0.0391111546773,0.0774096465198,0.959942479197,-0.119751213558,0.959942479197,-0.119751213558,0.0391111546773,0.0774096465198
4900000000.0,0.0395330539901,0.0789772447289,0.959481552569,-0.122201807346,0.959481552569,-0.122201807346,0.0395330539901,0.0789772447289
5000000000.0,0.0399627517806,0.0805422053712,0.959012034694,-0.124649814586,0.959012034694,-0.124649814586,0.0399627517806,0.0805422053712
5100000000.0,0.0404002363287,0.0821044807933,0.958533937006,-0.127095188475,0.958533937006,-0.127095188475,0.0404002363287,0.0821044807933
5200000000.0,0.0408454950718,0.0836640234984,0.958047271778,-0.129537882361,0.958047271778,-0.129537882361,0.0408454950718,0.0836640234984
5300000000.0,0.041298514641,0.0852207861518,0.957552052085,-0.131977849754,0.957552052085,-0.131977849754,0.041298514641,0.0852207861518
5400000000.0,0.0417592808936,0.0867747215873,0.957048291769,-0.134415044328,0.957048291769,-0.134415044328,0.0417592808936,0.0867747215873
5500000000.0,0.0422277789438,0.0883257828122,0.956536005411,-0.136849419927,0.956536005411,-0.136849419927,0.0422277789438,0.0883257828122
5600000000.0,0.0427039931906,0.0898739230133,0.956015208305,-0.139280930573,0.956015208305,-0.139280930573,0.0427039931906,0.0898739230133
5700000000.0,0.0431879073439,0.0914190955617,0.955485916425,-0.14170953047,0.955485916425,-0.14170953047,0.0431879073439,0.0914190955617
5800000000.0,0.0436795044487,0.0929612540182,0.954948146407,-0.144135174005,0.954948146407,-0.144135174005,0.0436795044487,0.0929612540182
5900000000.0,0.0441787669076,0.0945003521377,0.954401915525,-0.146557815762,0.954401915525,-0.146557815762,0.0441787669076,0.0945003521377
6000000000.0,0.0446856765018,0.0960363438745,0.953847241669,-0.148977410517,0.953847241669,-0.148977410517,0.0446856765018,0.0960363438745
6100000000.0,0.0452002144107,0.0975691833864,0.953284143326,-0.151393913249,0.953284143326,-0.151393913249,0.0452002144107,0.0975691833864
6200000000.0,0.0457223612304,0.0990988250396,0.952712639561,-0.153807279144,0.952712639561,-0.153807279144,0.0457223612304,0.0990988250396
6300000000.0,0.046252096991,0.100625223413,0.952132750001,-0.156217463594,0.952132750001,-0.156217463594,0.046252096991,0.100625223413
6400000000.0,0.0467894011723,0.102148333301,0.951544494817,-0.158624422209,0.951544494817,-0.158624422209,0.0467894011723,0.102148333301
6500000000.0,0.0473342527199,0.10366810972,0.950947894712,-0.161028110815,0.950947894712,-0.161028110815,0.0473342527199,0.10366810972
6600000000.0,0.047886630059,0.105184507912,0.950342970902,-0.163428485462,0.950342970902,-0.163428485462,0.047886630059,0.105184507912
6700000000.0,0.0484465111083,0.106697483346,0.949729745106,-0.165825502425,0.949729745106,-0.165825502425,0.0484465111083,0.106697483346
6800000000.0,0.049013873293,0.108206991725,0.949108239531,-0.168219118211,0.949108239531,-0.168219118211,0.049013873293,0.108206991725
6900000000.0,0.049588693557,0.109712988986,0.948478476861,-0.170609289558,0.948478476861,-0.170609289558,0.049588693557,0.109712988986
7000000000.0,0.0501709483743,0.111215431307,0.947840480244,-0.172995973444,0.947840480244,-0.172995973444,0.0501709483743,0.111215431307
7100000000.0,0.0507606137608,0.11271427511,0.947194273283,-0.175379127086,0.947194273283,-0.175379127086,0.0507606137608,0.11271427511
7200000000.0,0.0513576652842,0.114209477064,0.946539880024,-0.177758707948,0.946539880024,-0.177758707948,0.0513576652842,0.114209477064
7300000000.0,0.0519620780748,0.115700994085,0.945877324943,-0.180134673739,0.945877324943,-0.180134673739,0.0519620780748,0.115700994085
7400000000.0,0.0525738268348,0.117188783345,0.945206632944,-0.18250698242,0.945206632944,-0.18250698242,0.0525738268348,0.117188783345
7500000000.0,0.0531928858476,0.118672802273,0.94452782934,-0.184875592208,0.94452782934,-0.184875592208,0.0531928858476,0.118672802273
7600000000.0,0.0538192289873,0.120153008555,0.943840939852,-0.187240461575,0.943840939852,-0.187240461575,0.0538192289873,0.120153008555
7700000000.0,0.0544528297266,0.121629360141,0.943145990596,-0.189601549254,0.943145990596,-0.189601549254,0.0544528297266,0.121629360141
7800000000.0,0.0550936611459,0.123101815246,0.942443008076,-0.191958814244,0.942443008076,-0.191958814244,0.0550936611459,0.123101815246
7900000000.0,0.0557416959406,0.124570332354,0.941732019177,-0.194312215806,0.941732019177,-0.194312215806,0.0557416959406,0.124570332354
8000000000.0,0.0563969064294,0.12603487022,0.941013051153,-0.196661713474,0.941013051153,-0.196661713474,0.0563969064294,0.12603487022
8100000000.0,0.0570592645617,0.127495387873,0.940286131627,-0.199007267052,0.940286131627,-0.199007267052,0.0570592645617,0.127495387873
8200000000.0,0.0577287419248,0.128951844619,0.939551288575,-0.201348836619,0.939551288575,-0.201348836619,0.0577287419248,0.128951844619
8300000000.0,0.0584053097509,0.130404200041,0.938808550325,-0.203686382531,0.938808550325,-0.203686382531,0.0584053097509,0.130404200041
8400000000.0,0.0590889389244,0.131852414007,0.938057945549,-0.206019865425,0.938057945549,-0.206019865425,0.0590889389244,0.131852414007
8500000000.0,0.059779599988,0.133296446668,0.937299503254,-0.208349246219,0.937299503254,-0.208349246219,0.059779599988,0.133296446668
8600000000.0,0.0604772631498,0.13473625846,0.93653325278,-0.210674486117,0.93653325278,-0.210674486117,0.0604772631498,0.13473625846
8700000000.0,0.0611818982894,0.13617181011,0.935759223786,-0.212995546609,0.935759223786,-0.212995546609,0.0611818982894,0.13617181011
8800000000.0,0.0618934749639,0.137603062637,0.934977446252,-0.215312389475,0.934977446252,-0.215312389475,0.0618934749639,0.137603062637
8900000000.0,0.0626119624146,0.139029977352,0.934187950468,-0.217624976787,0.934187950468,-0.217624976787,0.0626119624146,0.139029977352
9000000000.0,0.0633373295723,0.140452515863,0.933390767031,-0.219933270912,0.933390767031,-0.219933270912,0.0633373295723,0.140452515863
9100000000.0,0.0640695450636,0.141870640074,0.932585926835,-0.22223723451,0.932585926835,-0.22223723451,0.0640695450636,0.141870640074
9200000000.0,0.0648085772164,0.143284312191,0.93177346107,-0.224536830544,0.93177346107,-0.224536830544,0.0648085772164,0.143284312191
9300000000.0,0.0655543940655,0.144693494721,0.930953401213,-0.226832022272,0.930953401213,-0.226832022272,0.0655543940655,0.144693494721
9400000000.0,0.0663069633581,0.146098150477,0.930125779025,-0.229122773259,0.930125779025,-0.229122773259,0.0663069633581,0.146098150477
9500000000.0,0.0670662525595,0.147498242574,0.929290626543,-0.23140904737,0.929290626543,-0.23140904737,0.0670662525595,0.147498242574
9600000000.0,0.0678322288582,0.14889373444,0.928447976076,-0.23369080878,0.928447976076,-0.23369080878,0.0678322288582,0.14889373444
9700000000.0,0.0686048591708,0.150284589807,0.927597860202,-0.235968021968,0.927597860202,-0.235968021968,0.0686048591708,0.150284589807
9800000000.0,0.069384110148,0.151670772723,0.926740311757,-0.238240651727,0.926740311757,-0.238240651727,0.069384110148,0.151670772723
9900000000.0,0.070169948179,0.153052247546,0.925875363837,-0.240508663157,0.925875363837,-0.240508663157,0.070169948179,0.153052247546
10000000000.0,0.0709623393968,0.15442897895,0.925003049786,-0.242772021674,0.925003049786,-0.242772021674,0.0709623393968,0.15442897895
