freq (GHz),S11_real,S11_imag,S21_real,S21_imag,S12_real,S12_imag,S22_real,S22_imag
100000000.0,0.000280330445183,-0.00263087861867,0.999688743339,-0.00419988120116,0.999688743339,-0.00419988120116,0.000280330445183,-0.00263087861867
200000000.0,0.000245876411939,-0.00526163715227,0.999646605299,-0.0083996783165,0.999646605299,-0.0083996783165,0.000245876411939,-0.00526163715227
300000000.0,0.000188807313931,-0.00789212222848,0.99958041571,-0.0125992691005,0.99958041571,-0.0125992691005,0.00018880731393,-0.00789212222848
400000000.0,0.000109379022867,-0.0105221647966,0.999489920095,-0.0167985071161,0.999489920095,-0.0167985071161,0.000109379022867,-0.0105221647966
500000000.0,7.69186639338e-06,-0.0131515872616,0.999375022338,-0.0209972340043,0.999375022338,-0.0209972340043,7.69186639338e-06,-0.0131515872616
600000000.0,-0.000116200264832,-0.015780206253,0.999235675984,-0.0251952836025,0.999235675984,-0.0251952836025,-0.000116200264832,-0.015780206253
700000000.0,-0.000262262127329,-0.0184078340944,0.999071856738,-0.0293924840371,0.999071856738,-0.0293924840371,-0.000262262127329,-0.0184078340944
800000000.0,-0.000430466937723,-0.0210342797121,0.998883552505,-0.033588658984,0.998883552505,-0.033588658984,-0.000430466937723,-0.0210342797121
900000000.0,-0.000620791802844,-0.0236593492547,0.998670759,-0.0377836285116,0.998670759,-0.0377836285116,-0.000620791802844,-0.0236593492547
1000000000.0,-0.00083321537719,-0.0262828465448,0.998433477556,-0.0419772096848,0.998433477556,-0.0419772096848,-0.00083321537719,-0.0262828465448
1100000000.0,-0.00106771654042,-0.0289045734257,0.998171713932,-0.0461692170209,0.998171713932,-0.0461692170209,-0.00106771654042,-0.0289045734257
1200000000.0,-0.00132427359331,-0.0315243300381,0.997885477618,-0.0503594628492,0.997885477618,-0.0503594628492,-0.00132427359331,-0.0315243300381
1300000000.0,-0.00160286373901,-0.0341419150482,0.997574781417,-0.054547757602,0.997574781417,-0.054547757602,-0.00160286373901,-0.0341419150482
1400000000.0,-0.00190346273193,-0.0367571258407,0.997239641179,-0.0587339100591,0.997239641179,-0.0587339100591,-0.00190346273193,-0.0367571258407
1500000000.0,-0.00222604463003,-0.0393697586866,0.996880075626,-0.0629177275557,0.996880075626,-0.0629177275557,-0.00222604463003,-0.0393697586866
1600000000.0,-0.00257058161418,-0.0419796088899,0.996496106246,-0.0670990161634,0.996496106246,-0.0670990161634,-0.00257058161418,-0.0419796088899
1700000000.0,-0.00293704385259,-0.0445864709204,0.99608775721,-0.0712775808512,0.99608775721,-0.0712775808512,-0.00293704385259,-0.0445864709204
1800000000.0,-0.00332539939643,-0.0471901385334,0.995655055327,-0.0754532256288,0.995655055327,-0.0754532256288,-0.00332539939643,-0.0471901385334
1900000000.0,-0.00373561409815,-0.04979040488,0.995198030007,-0.0796257536779,0.995198030007,-0.0796257536779,-0.00373561409815,-0.04979040488
2000000000.0,-0.00416765154617,-0.0523870626094,0.99471671324,-0.0837949674721,0.99471671324,-0.0837949674721,-0.00416765154617,-0.0523870626094
2100000000.0,-0.00462147301238,-0.0549799039646,0.994211139576,-0.0879606688879,0.994211139576,-0.0879606688879,-0.00462147301238,-0.0549799039646
2200000000.0,-0.00509703740928,-0.0575687208728,0.993681346118,-0.0921226593091,0.993681346118,-0.0921226593091,-0.00509703740928,-0.0575687208728
2300000000.0,-0.00559430125491,-0.0601533050309,0.993127372515,-0.0962807397239,0.993127372515,-0.0962807397239,-0.00559430125491,-0.0601533050309
2400000000.0,-0.00611321864416,-0.0627334479871,0.992549260954,-0.100434710817,0.992549260954,-0.100434710817,-0.00611321864416,-0.0627334479871
2500000000.0,-0.00665374122523,-0.065308941219,0.991947056158,-0.10458437306,0.991947056158,-0.10458437306,-0.00665374122523,-0.065308941219
2600000000.0,-0.00721581818057,-0.0678795762089,0.991320805383,-0.10872952679,0.991320805383,-0.10872952679,-0.00721581818057,-0.0678795762089
2700000000.0,-0.00779939621153,-0.0704451445164,0.990670558412,-0.112869972294,0.990670558412,-0.112869972294,-0.00779939621153,-0.0704451445164
2800000000.0,-0.0084044195264,-0.0730054378486,0.989996367557,-0.117005509888,0.989996367557,-0.117005509888,-0.0084044195264,-0.0730054378486
2900000000.0,-0.00903082983135,-0.075560248128,0.98929828765,-0.121135939985,0.98929828765,-0.121135939985,-0.00903082983135,-0.075560248128
3000000000.0,-0.0096785663239,-0.078109367559,0.988576376041,-0.125261063174,0.988576376041,-0.125261063174,-0.0096785663239,-0.078109367559
3100000000.0,-0.0103475656889,-0.0806525886924,0.987830692595,-0.129380680285,0.987830692595,-0.129380680285,-0.0103475656889,-0.0806525886924
3200000000.0,-0.0110377620967,-0.0831897044881,0.987061299681,-0.133494592459,0.987061299681,-0.133494592459,-0.0110377620967,-0.0831897044881
3300000000.0,-0.011749087203,-0.0857205083767,0.986268262173,-0.137602601217,0.986268262173,-0.137602601217,-0.011749087203,-0.0857205083767
3400000000.0,-0.0124814701511,-0.0882447943199,0.985451647436,-0.141704508516,0.985451647436,-0.141704508516,-0.0124814701511,-0.0882447943199
3500000000.0,-0.0132348375755,-0.0907623568686,0.984611525318,-0.145800116823,0.984611525318,-0.145800116823,-0.0132348375755,-0.0907623568686
3600000000.0,-0.0140091136071,-0.0932729912213,0.983747968146,-0.149889229166,0.983747968146,-0.149889229166,-0.0140091136071,-0.0932729912213
3700000000.0,-0.0148042198804,-0.0957764932801,0.982861050709,-0.153971649199,0.982861050709,-0.153971649199,-0.0148042198804,-0.0957764932801
3800000000.0,-0.0156200755419,-0.098272659706,0.98195085025,-0.158047181262,0.98195085025,-0.158047181262,-0.0156200755419,-0.098272659706
3900000000.0,-0.0164565972597,-0.100761287973,0.981017446452,-0.162115630434,0.981017446452,-0.162115630434,-0.0164565972597,-0.100761287973
4000000000.0,-0.0173136992349,-0.103242176424,0.980060921426,-0.166176802592,0.980060921426,-0.166176802592,-0.0173136992349,-0.103242176424
4100000000.0,-0.018191293214,-0.105715124316,0.979081359694,-0.170230504465,0.979081359694,-0.170230504465,-0.018191293214,-0.105715124316
4200000000.0,-0.0190892885026,-0.108179931882,0.978078848175,-0.174276543688,0.978078848175,-0.174276543688,-0.0190892885026,-0.108179931882
4300000000.0,-0.0200075919807,-0.110636400372,0.977053476169,-0.178314728853,0.977053476169,-0.178314728853,-0.0200075919807,-0.110636400372
4400000000.0,-0.0209461081182,-0.113084332105,0.976005335337,-0.182344869565,0.976005335337,-0.182344869565,-0.0209461081182,-0.113084332105
4500000000.0,-0.0219047389929,-0.115523530523,0.974934519687,-0.186366776487,0.974934519687,-0.186366776487,-0.0219047389929,-0.115523530523
4600000000.0,-0.0228833843081,-0.117953800229,0.973841125547,-0.190380261394,0.973841125547,-0.190380261394,-0.0228833843081,-0.117953800229
4700000000.0,-0.0238819414125,-0.120374947042,0.972725251552,-0.194385137217,0.972725251552,-0.194385137217,-0.0238819414125,-0.120374947042
4800000000.0,-0.0249003053205,-0.122786778039,0.97158699862,-0.198381218098,0.97158699862,-0.198381218098,-0.0249003053205,-0.122786778039
4900000000.0,-0.0259383687335,-0.125189101599,0.970426469927,-0.202368319427,0.970426469927,-0.202368319427,-0.0259383687335,-0.125189101599
5000000000.0,-0.0269960220624,-0.12758172745,0.969243770887,-0.206346257895,0.969243770887,-0.206346257895,-0.0269960220624,-0.12758172745
5100000000.0,-0.0280731534507,-0.129964466711,0.968039009129,-0.210314851534,0.968039009129,-0.210314851534,-0.0280731534507,-0.129964466711
5200000000.0,-0.0291696487988,-0.132337131932,0.966812294469,-0.214273919766,0.966812294469,-0.214273919766,-0.0291696487988,-0.132337131932
5300000000.0,-0.0302853917891,-0.134699537138,0.965563738885,-0.218223283439,0.965563738885,-0.218223283439,-0.0302853917891,-0.134699537138
5400000000.0,-0.0314202639119,-0.13705149787,0.964293456494,-0.222162764872,0.964293456494,-0.222162764872,-0.0314202639119,-0.13705149787
5500000000.0,-0.0325741444918,-0.13939283122,0.963001563519,-0.226092187899,0.963001563519,-0.226092187899,-0.0325741444918,-0.13939283122
5600000000.0,-0.0337469107156,-0.141723355877,0.961688178266,-0.230011377903,0.961688178266,-0.230011377903,-0.0337469107156,-0.141723355877
5700000000.0,-0.0349384376604,-0.144042892158,0.960353421094,-0.233920161857,0.960353421094,-0.233920161857,-0.0349384376604,-0.144042892158
5800000000.0,-0.0361485983226,-0.146351262049,0.958997414384,-0.237818368365,0.958997414384,-0.237818368365,-0.0361485983226,-0.146351262049
5900000000.0,-0.0373772636474,-0.148648289239,0.95762028251,-0.241705827695,0.95762028251,-0.241705827695,-0.0373772636474,-0.148648289239
6000000000.0,-0.0386243025595,-0.150933799155,0.956222151809,-0.245582371817,0.956222151809,-0.245582371817,-0.0386243025595,-0.150933799155
6100000000.0,-0.0398895819939,-0.153207619001,0.95480315055,-0.249447834437,0.95480315055,-0.249447834437,-0.0398895819939,-0.153207619001
6200000000.0,-0.0411729669277,-0.155469577782,0.953363408899,-0.253302051033,0.953363408899,-0.253302051033,-0.0411729669277,-0.155469577782
6300000000.0,-0.0424743204122,-0.157719506347,0.951903058889,-0.257144858886,0.951903058889,-0.257144858886,-0.0424743204122,-0.157719506347
6400000000.0,-0.043793503606,-0.159957237411,0.950422234388,-0.260976097115,0.950422234388,-0.260976097115,-0.043793503606,-0.159957237411
6500000000.0,-0.0451303758082,-0.162182605593,0.948921071063,-0.264795606706,0.948921071063,-0.264795606706,-0.0451303758082,-0.162182605593
6600000000.0,-0.0464847944924,-0.164395447443,0.947399706345,-0.268603230544,0.947399706345,-0.268603230544,-0.0464847944924,-0.164395447443
6700000000.0,-0.0478566153413,-0.166595601468,0.945858279396,-0.27239881344,0.945858279396,-0.27239881344,-0.0478566153413,-0.166595601468
6800000000.0,-0.0492456922815,-0.168782908164,0.944296931076,-0.276182202163,0.944296931076,-0.276182202163,-0.0492456922815,-0.168782908164
6900000000.0,-0.0506518775189,-0.170957210043,0.942715803904,-0.279953245466,0.942715803904,-0.279953245466,-0.0506518775189,-0.170957210043
7000000000.0,-0.0520750215744,-0.173118351656,0.94111504202,-0.28371179411,0.94111504202,-0.28371179411,-0.0520750215744,-0.173118351656
7100000000.0,-0.0535149733205,-0.175266179618,0.939494791156,-0.287457700897,0.939494791156,-0.287457700897,-0.0535149733205,-0.175266179618
7200000000.0,-0.0549715800177,-0.177400542637,0.937855198592,-0.291190820686,0.937855198592,-0.291190820686,-0.0549715800177,-0.177400542637
7300000000.0,-0.0564446873516,-0.179521291534,0.936196413122,-0.294911010421,0.936196413122,-0.294911010421,-0.0564446873516,-0.179521291534
7400000000.0,-0.0579341394701,-0.181628279264,0.934518585015,-0.298618129157,0.934518585015,-0.298618129157,-0.0579341394701,-0.181628279264
7500000000.0,-0.0594397790213,-0.183721360939,0.93282186598,-0.302312038076,0.93282186598,-0.302312038076,-0.0594397790213,-0.183721360939
7600000000.0,-0.0609614471912,-0.185800393852,0.931106409124,-0.305992600512,0.931106409124,-0.305992600512,-0.0609614471912,-0.185800393852
7700000000.0,-0.0624989837423,-0.18786523749,0.929372368917,-0.309659681968,0.929372368917,-0.309659681968,-0.0624989837423,-0.18786523749
7800000000.0,-0.0640522270516,-0.189915753558,0.92761990115,-0.31331315014,0.92761990115,-0.31331315014,-0.0640522270516,-0.189915753558
7900000000.0,-0.06562101415,-0.191951805995,0.925849162899,-0.31695287493,0.925849162899,-0.31695287493,-0.06562101415,-0.191951805995
8000000000.0,-0.0672051807604,-0.193973260992,0.924060312484,-0.320578728466,0.924060312484,-0.320578728466,-0.0672051807604,-0.193973260992
8100000000.0,-0.0688045613378,-0.195979987004,0.922253509431,-0.324190585119,0.922253509431,-0.324190585119,-0.0688045613378,-0.195979987004
8200000000.0,-0.0704189891076,-0.197971854772,0.920428914431,-0.327788321517,0.920428914431,-0.327788321517,-0.0704189891076,-0.197971854772
8300000000.0,-0.0720482961058,-0.199948737332,0.918586689303,-0.331371816559,0.918586689303,-0.331371816559,-0.0720482961058,-0.199948737332
8400000000.0,-0.0736923132181,-0.20191051003,0.916726996951,-0.334940951431,0.916726996951,-0.334940951431,-0.0736923132181,-0.20191051003
8500000000.0,-0.0753508702198,-0.203857050535,0.914850001325,-0.338495609617,0.914850001325,-0.338495609617,-0.0753508702198,-0.203857050535
8600000000.0,-0.0770237958155,-0.20578823885,0.912955867384,-0.342035676911,0.912955867384,-0.342035676911,-0.0770237958155,-0.20578823885
8700000000.0,-0.0787109176787,-0.207703957321,0.911044761053,-0.345561041428,0.911044761053,-0.345561041428,-0.0787109176787,-0.207703957321
8800000000.0,-0.0804120624919,-0.209604090653,0.909116849182,-0.349071593617,0.909116849182,-0.349071593617,-0.0804120624919,-0.209604090653
8900000000.0,-0.0821270559864,-0.21148852591,0.907172299511,-0.352567226265,0.907172299511,-0.352567226265,-0.0821270559864,-0.21148852591
9000000000.0,-0.0838557229822,-0.21335715253,0.905211280623,-0.356047834507,0.905211280623,-0.356047834507,-0.0838557229822,-0.21335715253
9100000000.0,-0.0855978874275,-0.215209862332,0.90323396191,-0.359513315838,0.90323396191,-0.359513315838,-0.0855978874275,-0.215209862332
9200000000.0,-0.087353372439,-0.217046549517,0.90124051353,-0.362963570114,0.90124051353,-0.362963570114,-0.087353372439,-0.217046549517
9300000000.0,-0.0891220003415,-0.218867110681,0.899231106367,-0.366398499559,0.899231106367,-0.366398499559,-0.0891220003415,-0.218867110681
9400000000.0,-0.0909035927075,-0.220671444813,0.897205911994,-0.369818008771,0.897205911994,-0.369818008771,-0.0909035927075,-0.220671444813
9500000000.0,-0.0926979703966,-0.222459453303,0.895165102628,-0.373222004729,0.895165102628,-0.373222004729,-0.0926979703966,-0.222459453303
9600000000.0,-0.0945049535955,-0.224231039945,0.893108851095,-0.376610396789,0.893108851095,-0.376610396789,-0.0945049535955,-0.224231039945
9700000000.0,-0.096324361857,-0.225986110939,0.891037330788,-0.379983096692,0.891037330788,-0.379983096692,-0.096324361857,-0.225986110939
9800000000.0,-0.0981560141393,-0.227724574889,0.88895071563,-0.383340018566,0.88895071563,-0.383340018566,-0.0981560141393,-0.227724574889
9900000000.0,-0.0999997288448,-0.22944634281,0.886849180032,-0.386681078923,0.886849180032,-0.386681078923,-0.0999997288448,-0.22944634281
10000000000.0,-0.10185532386,-0.231151328125,0.884732898854,-0.390006196662,0.884732898854,-0.390006196662,-0.10185532386,-0.231151328125
