freq (GHz),S11_real,S11_imag,S21_real,S21_imag,S12_real,S12_imag,S22_real,S22_imag
100000000.0,-7.5417598173e-05,-0.0104943040797,0.999829967993,-0.0106468285542,0.999829967993,-0.0106468285542,-7.54175981732e-05,-0.0104943040797
200000000.0,-0.000420641285587,-0.0209810252158,0.999484065083,-0.0212860806288,0.999484065083,-0.0212860806288,-0.000420641285588,-0.0209810252158
300000000.0,-0.000988799151862,-0.0314530752099,0.998915367998,-0.0319106716484,0.998915367998,-0.0319106716484,-0.000988799151862,-0.0314530752099
400000000.0,-0.00177907781674,-0.041903407323,0.998124608693,-0.0425135576982,0.998124608693,-0.0425135576982,-0.00177907781674,-0.041903407323
500000000.0,-0.00279039368003,-0.0523250277085,0.997112839552,-0.0530877473678,0.997112839552,-0.0530877473678,-0.00279039368003,-0.0523250277085
600000000.0,-0.00402137931787,-0.0627110093199,0.995881412148,-0.063626315796,0.995881412148,-0.063626315796,-0.00402137931787,-0.0627110093199
700000000.0,-0.00547038375719,-0.0730545062221,0.99443196813,-0.0741224190505,0.99443196813,-0.0741224190505,-0.00547038375719,-0.0730545062221
800000000.0,-0.00713547644116,-0.0833487678306,0.992766432038,-0.0845693084079,0.992766432038,-0.0845693084079,-0.00713547644116,-0.0833487678306
900000000.0,-0.00901445295002,-0.0935871528589,0.990887004153,-0.0949603443275,0.990887004153,-0.0949603443275,-0.00901445295002,-0.0935871528589
1000000000.0,-0.0111048419071,-0.103763142854,0.988796152868,-0.105289010006,0.988796152868,-0.105289010006,-0.0111048419071,-0.103763142854
1100000000.0,-0.0134039128386,-0.113870355233,0.986496606421,-0.115548924425,0.986496606421,-0.115548924425,-0.0134039128386,-0.113870355233
1200000000.0,-0.0159086848623,-0.123902555738,0.983991343976,-0.125733854823,0.983991343976,-0.125733854823,-0.0159086848623,-0.123902555738
1300000000.0,-0.0186159361193,-0.13385367027,0.981283586038,-0.13583772853,0.981283586038,-0.13583772853,-0.0186159361193,-0.13385367027
1400000000.0,-0.0215222138751,-0.143717796032,0.97837678425,-0.14585464412,0.97837678425,-0.14585464412,-0.0215222138751,-0.143717796032
1500000000.0,-0.0246238452254,-0.15348921195,0.975274610625,-0.155778881838,0.975274610625,-0.155778881838,-0.0246238452254,-0.15348921195
1600000000.0,-0.0279169483386,-0.163162388329,0.971980946255,-0.16560491326,0.971980946255,-0.16560491326,-0.0279169483386,-0.163162388329
1700000000.0,-0.0313974441722,-0.172731995719,0.968499869562,-0.175327410164,0.968499869562,-0.175327410164,-0.0313974441722,-0.172731995719
1800000000.0,-0.0350610685974,-0.182192912969,0.964835644148,-0.184941252584,0.964835644148,-0.184941252584,-0.0350610685974,-0.182192912969
1900000000.0,-0.0389033848654,-0.191540234437,0.960992706307,-0.194441536026,0.960992706307,-0.194441536026,-0.0389033848654,-0.191540234437
2000000000.0,-0.042919796353,-0.200769276364,0.95697565227,-0.203823577843,0.95697565227,-0.203823577843,-0.042919796353,-0.200769276364
2100000000.0,-0.0471055595207,-0.209875582389,0.952789225236,-0.213082922752,0.952789225236,-0.213082922752,-0.0471055595207,-0.209875582389
2200000000.0,-0.0514557970195,-0.218854928213,0.948438302252,-0.222215347502,0.948438302252,-0.222215347502,-0.0514557970195,-0.218854928213
2300000000.0,-0.0559655108867,-0.227703325413,0.943927881013,-0.231216864684,0.943927881013,-0.231216864684,-0.0559655108867,-0.227703325413
2400000000.0,-0.0606295957661,-0.236417024407,0.939263066639,-0.240083725707,0.939263066639,-0.240083725707,-0.0606295957661,-0.236417024407
2500000000.0,-0.0654428520973,-0.244992516607,0.934449058476,-0.24881242294,0.934449058476,-0.24881242294,-0.0654428520973,-0.244992516607
2600000000.0,-0.0703999992149,-0.253426535741,0.929491136997,-0.25739969105,0.929491136997,-0.25739969105,-0.0703999992149,-0.253426535741
2700000000.0,-0.0754956883063,-0.261716058407,0.924394650841,-0.265842507543,0.924394650841,-0.265842507543,-0.0754956883063,-0.261716058407
2800000000.0,-0.0807245151762,-0.26985830385,0.919165004044,-0.274138092552,0.919165004044,-0.274138092552,-0.0807245151762,-0.26985830385
2900000000.0,-0.0860810327697,-0.277850733011,0.913807643516,-0.28228390788,0.913807643516,-0.28228390788,-0.0860810327697,-0.277850733011
3000000000.0,-0.0915597634117,-0.285691046872,0.908328046797,-0.290277655353,0.908328046797,-0.290277655353,-0.0915597634117,-0.285691046872
3100000000.0,-0.0971552107201,-0.293377184138,0.902731710147,-0.298117274497,0.902731710147,-0.298117274497,-0.0971552107201,-0.293377184138
3200000000.0,-0.102861871157,-0.300907318278,0.897024136988,-0.305800939582,0.897024136988,-0.305800939582,-0.102861871157,-0.300907318278
3300000000.0,-0.108674245185,-0.308279853985,0.891210826751,-0.313327056082,0.891210826751,-0.313327056082,-0.108674245185,-0.308279853985
3400000000.0,-0.114586847998,-0.315493423075,0.885297264143,-0.320694256575,0.885297264143,-0.320694256575,-0.114586847998,-0.315493423075
3500000000.0,-0.120594219799,-0.322546879872,0.879288908865,-0.327901396132,0.879288908865,-0.327901396132,-0.120594219799,-0.322546879872
3600000000.0,-0.126690935614,-0.329439296136,0.873191185806,-0.334947547239,0.873191185806,-0.334947547239,-0.126690935614,-0.329439296136
3700000000.0,-0.132871614603,-0.336169955546,0.86700947572,-0.341831994285,0.86700947572,-0.341831994285,-0.132871614603,-0.336169955546
3800000000.0,-0.139130928875,-0.342738347808,0.860749106419,-0.348554227669,0.860749106419,-0.348554227669,-0.139130928875,-0.342738347808
3900000000.0,-0.145463611783,-0.349144162412,0.854415344476,-0.355113937562,0.854415344476,-0.355113937562,-0.145463611783,-0.349144162412
4000000000.0,-0.151864465697,-0.355387282096,0.84801338745,-0.361511007362,0.84801338745,-0.361511007362,-0.151864465697,-0.355387282096
4100000000.0,-0.158328369243,-0.361467776035,0.841548356644,-0.367745506893,0.841548356644,-0.367745506893,-0.158328369243,-0.361467776035
4200000000.0,-0.164850284018,-0.367385892821,0.835025290398,-0.373817685378,0.835025290398,-0.373817685378,-0.164850284018,-0.367385892821
4300000000.0,-0.17142526077,-0.373142053247,0.828449137898,-0.379727964231,0.828449137898,-0.379727964231,-0.17142526077,-0.373142053247
4400000000.0,-0.17804844506,-0.378736842955,0.821824753524,-0.385476929699,0.821824753524,-0.385476929699,-0.17804844506,-0.378736842955
4500000000.0,-0.184715082396,-0.38417100497,0.81515689171,-0.391065325399,0.81515689171,-0.391065325399,-0.184715082396,-0.38417100497
4600000000.0,-0.191420522863,-0.389445432156,0.808450202312,-0.396494044774,0.808450202312,-0.396494044774,-0.191420522863,-0.389445432156
4700000000.0,-0.198160225249,-0.39456115963,0.801709226486,-0.401764123509,0.801709226486,-0.401764123509,-0.198160225249,-0.39456115963
4800000000.0,-0.204929760691,-0.399519357167,0.794938393044,-0.40687673193,0.794938393044,-0.40687673193,-0.204929760691,-0.399519357167
4900000000.0,-0.211724815835,-0.404321321608,0.788142015286,-0.411833167423,0.788142015286,-0.411833167423,-0.211724815835,-0.404321321608
5000000000.0,-0.218541195551,-0.408968469328,0.781324288293,-0.416634846895,0.781324288293,-0.416634846895,-0.218541195551,-0.408968469328
5100000000.0,-0.225374825195,-0.413462328758,0.774489286656,-0.421283299295,0.774489286656,-0.421283299295,-0.225374825195,-0.413462328758
5200000000.0,-0.232221752458,-0.417804533003,0.767640962636,-0.425780158238,0.767640962636,-0.425780158238,-0.232221752458,-0.417804533003
5300000000.0,-0.239078148802,-0.421996812572,0.760783144725,-0.430127154729,0.760783144725,-0.430127154729,-0.239078148802,-0.421996812572
5400000000.0,-0.24594031051,-0.426040988231,0.75391953659,-0.434326110024,0.75391953659,-0.434326110024,-0.24594031051,-0.426040988231
5500000000.0,-0.252804659375,-0.429938964017,0.747053716395,-0.438378928635,0.747053716395,-0.438378928635,-0.252804659375,-0.429938964017
5600000000.0,-0.259667743036,-0.433692720397,0.740189136452,-0.4422875915,0.740189136452,-0.4422875915,-0.259667743036,-0.433692720397
5700000000.0,-0.266526234993,-0.437304307623,0.73332912322,-0.446054149328,0.73332912322,-0.446054149328,-0.266526234993,-0.437304307623
5800000000.0,-0.273376934309,-0.440775839255,0.726476877588,-0.449680716127,0.726476877588,-0.449680716127,-0.273376934309,-0.440775839255
5900000000.0,-0.280216765033,-0.444109485898,0.719635475466,-0.453169462941,0.719635475466,-0.453169462941,-0.280216765033,-0.444109485898
6000000000.0,-0.287042775353,-0.447307469133,0.712807868621,-0.456522611784,0.712807868621,-0.456522611784,-0.287042775353,-0.447307469133
6100000000.0,-0.293852136501,-0.45037205567,0.705996885779,-0.459742429788,0.705996885779,-0.459742429788,-0.293852136501,-0.45037205567
6200000000.0,-0.300642141438,-0.453305551717,0.699205233937,-0.462831223574,0.699205233937,-0.462831223574,-0.300642141438,-0.453305551717
6300000000.0,-0.30741020332,-0.456110297567,0.692435499896,-0.46579133384,0.692435499896,-0.46579133384,-0.30741020332,-0.456110297567
6400000000.0,-0.314153853785,-0.458788662418,0.685690151978,-0.468625130181,0.685690151978,-0.468625130181,-0.314153853785,-0.458788662418
6500000000.0,-0.32087074106,-0.461343039413,0.678971541912,-0.471335006132,0.678971541912,-0.471335006132,-0.32087074106,-0.461343039413
6600000000.0,-0.327558627922,-0.463775840918,0.672281906883,-0.473923374439,0.672281906883,-0.473923374439,-0.327558627922,-0.463775840918
6700000000.0,-0.334215389509,-0.466089494016,0.66562337171,-0.47639266256,0.66562337171,-0.47639266256,-0.334215389509,-0.466089494016
6800000000.0,-0.340839011022,-0.468286436235,0.658997951152,-0.478745308391,0.658997951152,-0.478745308391,-0.340839011022,-0.468286436235
6900000000.0,-0.347427585312,-0.470369111497,0.652407552318,-0.480983756215,0.652407552318,-0.480983756215,-0.347427585312,-0.470369111497
7000000000.0,-0.353979310373,-0.472339966292,0.645853977172,-0.483110452874,0.645853977172,-0.483110452874,-0.353979310373,-0.472339966292
7100000000.0,-0.360492486768,-0.474201446064,0.639338925114,-0.48512784416,0.639338925114,-0.48512784416,-0.360492486768,-0.474201446064
7200000000.0,-0.366965514973,-0.475955991818,0.632863995626,-0.487038371416,0.632863995626,-0.487038371416,-0.366965514973,-0.475955991818
7300000000.0,-0.373396892682,-0.477606036927,0.626430690975,-0.488844468352,0.626430690975,-0.488844468352,-0.373396892682,-0.477606036927
7400000000.0,-0.379785212059,-0.479154004153,0.620040418956,-0.490548558057,0.620040418956,-0.490548558057,-0.379785212059,-0.479154004153
7500000000.0,-0.38612915697,-0.480602302863,0.613694495665,-0.492153050217,0.613694495665,-0.492153050217,-0.38612915697,-0.480602302863
7600000000.0,-0.39242750018,-0.481953326432,0.607394148298,-0.493660338525,0.607394148298,-0.493660338525,-0.39242750018,-0.481953326432
7700000000.0,-0.398679100552,-0.483209449841,0.60114051795,-0.495072798272,0.60114051795,-0.495072798272,-0.398679100552,-0.483209449841
7800000000.0,-0.404882900236,-0.484373027452,0.594934662434,-0.496392784124,0.594934662434,-0.496392784124,-0.404882900236,-0.484373027452
7900000000.0,-0.411037921859,-0.485446390959,0.588777559083,-0.497622628074,0.588777559083,-0.497622628074,-0.411037921859,-0.485446390959
8000000000.0,-0.417143265736,-0.486431847502,0.582670107543,-0.498764637556,0.582670107543,-0.498764637556,-0.417143265736,-0.486431847502
8100000000.0,-0.423198107094,-0.487331677947,0.576613132546,-0.499821093723,0.576613132546,-0.499821093723,-0.423198107094,-0.487331677947
8200000000.0,-0.429201693323,-0.488148135317,0.570607386666,-0.500794249885,0.570607386666,-0.500794249885,-0.429201693323,-0.488148135317
8300000000.0,-0.435153341253,-0.488883443376,0.564653553031,-0.501686330081,0.564653553031,-0.501686330081,-0.435153341253,-0.488883443376
8400000000.0,-0.441052434477,-0.489539795344,0.558752248012,-0.502499527806,0.558752248012,-0.502499527806,-0.441052434477,-0.489539795344
8500000000.0,-0.446898420699,-0.490119352754,0.552904023862,-0.503236004862,0.552904023862,-0.503236004862,-0.446898420699,-0.490119352754
8600000000.0,-0.452690809139,-0.490624244437,0.547109371324,-0.503897890346,0.547109371324,-0.503897890346,-0.452690809139,-0.490624244437
8700000000.0,-0.458429167979,-0.491056565623,0.541368722177,-0.504487279747,0.541368722177,-0.504487279747,-0.458429167979,-0.491056565623
8800000000.0,-0.464113121858,-0.491418377162,0.535682451742,-0.505006234171,0.535682451742,-0.505006234171,-0.464113121858,-0.491418377162
8900000000.0,-0.469742349425,-0.491711704849,0.530050881331,-0.505456779666,0.530050881331,-0.505456779666,-0.469742349425,-0.491711704849
9000000000.0,-0.475316580943,-0.491938538858,0.524474280643,-0.505840906652,0.524474280643,-0.505840906652,-0.475316580943,-0.491938538858
9100000000.0,-0.480835595951,-0.492100833264,0.518952870097,-0.50616056945,0.518952870097,-0.50616056945,-0.480835595951,-0.492100833264
9200000000.0,-0.486299220986,-0.492200505666,0.513486823119,-0.506417685897,0.513486823119,-0.506417685897,-0.486299220986,-0.492200505666
9300000000.0,-0.491707327367,-0.492239436886,0.50807626835,-0.506614137052,0.50807626835,-0.506614137052,-0.491707327367,-0.492239436886
9400000000.0,-0.497059829031,-0.492219470754,0.502721291814,-0.506751766978,0.502721291814,-0.506751766978,-0.497059829031,-0.492219470754
9500000000.0,-0.502356680442,-0.492142413967,0.497421939007,-0.506832382602,0.497421939007,-0.506832382602,-0.502356680442,-0.492142413967
9600000000.0,-0.507597874552,-0.492010036017,0.492178216937,-0.50685775364,0.492178216937,-0.50685775364,-0.507597874552,-0.492010036017
9700000000.0,-0.512783440835,-0.491824069179,0.486990096092,-0.506829612591,0.486990096092,-0.506829612591,-0.512783440835,-0.491824069179
9800000000.0,-0.51791344337,-0.491586208574,0.481857512353,-0.506749654795,0.481857512353,-0.506749654795,-0.51791344337,-0.491586208574
9900000000.0,-0.522987978999,-0.491298112269,0.476780368837,-0.506619538535,0.476780368837,-0.506619538535,-0.522987978999,-0.491298112269
10000000000.0,-0.528007175537,-0.490961401444,0.471758537691,-0.506440885203,0.471758537691,-0.506440885203,-0.528007175537,-0.490961401444
