freq (GHz),S11_real,S11_imag,S21_real,S21_imag,S12_real,S12_imag,S22_real,S22_imag
100000000.0,0.119518500805,0.00337913933329,0.880479192416,-0.00431526048798,0.880479192416,-0.00431526048798,0.119518500805,0.00337913933329
200000000.0,0.1202574106,0.00674575355229,0.879738059327,-0.00861800150661,0.879738059327,-0.00861800150661,0.1202574106,0.00674575355229
300000000.0,0.120839400545,0.0101044326673,0.879152929066,-0.0129128182903,0.879152929066,-0.0129128182903,0.120839400545,0.0101044326673
400000000.0,0.121356801542,0.0134565159999,0.878631470357,-0.0172010548851,0.878631470357,-0.0172010548851,0.121356801542,0.0134565159999
500000000.0,0.121845246419,0.016802586534,0.878138050046,-0.0214832987502,0.878138050046,-0.0214832987502,0.121845246419,0.016802586534
600000000.0,0.12232293056,0.0201428925572,0.877654472445,-0.0257598024855,0.877654472445,-0.0257598024855,0.12232293056,0.0201428925572
700000000.0,0.122800605518,0.0234774991982,0.877169985711,-0.0300306354146,0.877169985711,-0.0300306354146,0.122800605518,0.0234774991982
800000000.0,0.123285230627,0.0268063587737,0.876677630222,-0.0342957539573,0.876677630222,-0.0342957539573,0.123285230627,0.0268063587737
900000000.0,0.123781600656,0.0301293486184,0.876172610921,-0.0385550394783,0.876172610921,-0.0385550394783,0.123781600656,0.0301293486184
1000000000.0,0.124293171693,0.0334462935261,0.875651471424,-0.0428083207396,0.875651471424,-0.0428083207396,0.124293171693,0.0334462935261
1100000000.0,0.124822520708,0.0367569800389,0.875111634464,-0.0470553881992,0.875111634464,-0.0470553881992,0.124822520708,0.0367569800389
1200000000.0,0.125371619655,0.0400611660521,0.874551127777,-0.0512960036228,0.874551127777,-0.0512960036228,0.125371619655,0.0400611660521
1300000000.0,0.125942008103,0.0433585875536,0.873968411476,-0.0555299068288,0.873968411476,-0.0555299068288,0.125942008103,0.0433585875536
1400000000.0,0.126534906812,0.0466489635216,0.873362264474,-0.0597568205899,0.873362264474,-0.0597568205899,0.126534906812,0.0466489635216
1500000000.0,0.127151295205,0.04993199959,0.872731707004,-0.0639764543028,0.872731707004,-0.0639764543028,0.127151295205,0.04993199959
1600000000.0,0.127791965848,0.0532073908614,0.87207594615,-0.0681885068036,0.87207594615,-0.0681885068036,0.127791965848,0.0532073908614
1700000000.0,0.128457563743,0.0564748241137,0.871394336544,-0.0723926685771,0.871394336544,-0.0723926685771,0.128457563743,0.0564748241137
1800000000.0,0.129148615331,0.0597339795638,0.870686351367,-0.0765886235228,0.870686351367,-0.0765886235228,0.129148615331,0.0597339795638
1900000000.0,0.129865550298,0.0629845323029,0.869951560541,-0.0807760503919,0.869951560541,-0.0807760503919,0.129865550298,0.0629845323029
2000000000.0,0.130608718276,0.066226153481,0.869189614029,-0.0849546239732,0.869189614029,-0.0849546239732,0.130608718276,0.066226153481
2100000000.0,0.131378401812,0.0694585112989,0.868400228864,-0.0891240160872,0.868400228864,-0.0891240160872,0.131378401812,0.0694585112989
2200000000.0,0.132174826589,0.0726812718494,0.86758317893,-0.0932838964278,0.86758317893,-0.0932838964278,0.132174826589,0.0726812718494
2300000000.0,0.132998169585,0.0758940998386,0.866738286799,-0.0974339332852,0.866738286799,-0.0974339332852,0.132998169585,0.0758940998386
2400000000.0,0.133848565652,0.0790966592107,0.865865417157,-0.101573794172,0.865865417157,-0.101573794172,0.133848565652,0.0790966592107
2500000000.0,0.134726112879,0.0822886136953,0.864964471439,-0.10570314637,0.864964471439,-0.10570314637,0.134726112879,0.0822886136953
2600000000.0,0.135630877008,0.0854696272891,0.864035383407,-0.109821657414,0.864035383407,-0.109821657414,0.135630877008,0.0854696272891
2700000000.0,0.136562895106,0.0886393646855,0.863078115488,-0.113928995523,0.863078115488,-0.113928995523,0.136562895106,0.0886393646855
2800000000.0,0.137522178638,0.0917974916587,0.862092655696,-0.118024829983,0.862092655696,-0.118024829983,0.137522178638,0.0917974916587
2900000000.0,0.138508716058,0.0949436754104,0.861079015036,-0.122108831495,0.861079015036,-0.122108831495,0.138508716058,0.0949436754104
3000000000.0,0.139522475018,0.0980775848843,0.860037225304,-0.12618067249,0.860037225304,-0.12618067249,0.139522475018,0.0980775848843
3100000000.0,0.140563404262,0.101198891052,0.858967337189,-0.130240027417,0.858967337189,-0.130240027417,0.140563404262,0.101198891052
3200000000.0,0.141631435251,0.104307267177,0.857869418643,-0.134286573004,0.857869418643,-0.134286573004,0.141631435251,0.104307267177
3300000000.0,0.142726483585,0.107402389054,0.856743553468,-0.138319988504,0.856743553468,-0.138319988504,0.142726483585,0.107402389054
3400000000.0,0.143848450237,0.110483935233,0.855589840076,-0.142339955912,0.855589840076,-0.142339955912,0.143848450237,0.110483935233
3500000000.0,0.144997222642,0.11355158723,0.854408390401,-0.146346160178,0.854408390401,-0.146346160178,0.144997222642,0.11355158723
3600000000.0,0.146172675659,0.11660502971,0.853199328937,-0.150338289398,0.853199328937,-0.150338289398,0.146172675659,0.11660502971
3700000000.0,0.147374672427,0.119643950674,0.851962791883,-0.154316034991,0.851962791883,-0.154316034991,0.147374672427,0.119643950674
3800000000.0,0.14860306513,0.122668041625,0.850698926379,-0.158279091869,0.850698926379,-0.158279091869,0.14860306513,0.122668041625
3900000000.0,0.149857695683,0.125676997718,0.849407889814,-0.162227158592,0.849407889814,-0.162227158592,0.149857695683,0.125676997718
4000000000.0,0.15113839636,0.128670517915,0.848089849207,-0.166159937514,0.848089849207,-0.166159937514,0.15113839636,0.128670517915
4100000000.0,0.152444990352,0.131648305113,0.84674498064,-0.170077134924,0.84674498064,-0.170077134924,0.152444990352,0.131648305113
4200000000.0,0.153777292289,0.134610066282,0.845373468742,-0.173978461168,0.845373468742,-0.173978461168,0.153777292289,0.134610066282
4300000000.0,0.155135108713,0.137555512577,0.843975506216,-0.177863630777,0.843975506216,-0.177863630777,0.155135108713,0.137555512577
4400000000.0,0.156518238513,0.140484359457,0.842551293398,-0.181732362577,0.842551293398,-0.181732362577,0.156518238513,0.140484359457
4500000000.0,0.157926473328,0.143396326788,0.841101037861,-0.185584379793,0.841101037861,-0.185584379793,0.157926473328,0.143396326788
4600000000.0,0.159359597932,0.146291138944,0.839624954027,-0.189419410155,0.839624954027,-0.189419410155,0.159359597932,0.146291138944
4700000000.0,0.160817390573,0.149168524901,0.838123262825,-0.193237185986,0.838123262825,-0.193237185986,0.160817390573,0.149168524901
4800000000.0,0.162299623314,0.152028218323,0.836596191357,-0.197037444294,0.836596191357,-0.197037444294,0.162299623314,0.152028218323
4900000000.0,0.163806062337,0.154869957643,0.835043972588,-0.20081992685,0.835043972588,-0.20081992685,0.163806062337,0.154869957643
5000000000.0,0.165336468238,0.157693486145,0.833466845053,-0.204584380268,0.833466845053,-0.204584380268,0.165336468238,0.157693486145
5100000000.0,0.166890596305,0.160498552027,0.831865052579,-0.208330556073,0.831865052579,-0.208330556073,0.166890596305,0.160498552027
5200000000.0,0.168468196782,0.163284908473,0.830238844021,-0.212058210771,0.830238844021,-0.212058210771,0.168468196782,0.163284908473
5300000000.0,0.170069015119,0.166052313711,0.828588473011,-0.215767105908,0.828588473011,-0.215767105908,0.170069015119,0.166052313711
5400000000.0,0.171692792218,0.168800531073,0.826914197714,-0.219457008125,0.826914197714,-0.219457008125,0.171692792218,0.168800531073
5500000000.0,0.17333926466,0.171529329043,0.8252162806,-0.223127689217,0.8252162806,-0.223127689217,0.17333926466,0.171529329043
5600000000.0,0.175008164926,0.174238481307,0.823494988221,-0.226778926171,0.823494988221,-0.226778926171,0.175008164926,0.174238481307
5700000000.0,0.176699221614,0.176927766797,0.821750590996,-0.23041050122,0.821750590996,-0.23041050122,0.176699221614,0.176927766797
5800000000.0,0.178412159646,0.179596969728,0.819983363008,-0.234022201872,0.819983363008,-0.234022201872,0.178412159646,0.179596969728
5900000000.0,0.180146700463,0.182245879635,0.8181935818,-0.237613820955,0.8181935818,-0.237613820955,0.180146700463,0.182245879635
6000000000.0,0.181902562221,0.184874291403,0.816381528183,-0.241185156641,0.816381528183,-0.241185156641,0.181902562221,0.184874291403
6100000000.0,0.18367945998,0.187482005296,0.814547486052,-0.244736012476,0.814547486052,-0.244736012476,0.18367945998,0.187482005296
6200000000.0,0.185477105883,0.19006882698,0.8126917422,-0.248266197407,0.8126917422,-0.248266197407,0.185477105883,0.19006882698
6300000000.0,0.187295209335,0.192634567539,0.810814586143,-0.251775525796,0.810814586143,-0.251775525796,0.187295209335,0.192634567539
6400000000.0,0.189133477172,0.195179043501,0.808916309946,-0.255263817442,0.808916309946,-0.255263817442,0.189133477172,0.195179043501
6500000000.0,0.190991613835,0.19770207684,0.806997208057,-0.258730897591,0.806997208057,-0.258730897591,0.190991613835,0.19770207684
6600000000.0,0.192869321528,0.200203494993,0.805057577143,-0.262176596947,0.805057577143,-0.262176596947,0.192869321528,0.200203494993
6700000000.0,0.194766300379,0.202683130865,0.803097715929,-0.265600751678,0.803097715929,-0.265600751678,0.194766300379,0.202683130865
6800000000.0,0.196682248599,0.205140822828,0.801117925042,-0.269003203419,0.801117925042,-0.269003203419,0.196682248599,0.205140822828
6900000000.0,0.198616862632,0.207576414728,0.799118506861,-0.272383799272,0.799118506861,-0.272383799272,0.198616862632,0.207576414728
7000000000.0,0.200569837302,0.209989755874,0.797099765365,-0.275742391806,0.797099765365,-0.275742391806,0.200569837302,0.209989755874
7100000000.0,0.202540865965,0.212380701039,0.795062005987,-0.279078839044,0.795062005987,-0.279078839044,0.202540865965,0.212380701039
7200000000.0,0.204529640644,0.214749110447,0.793005535475,-0.282393004461,0.793005535475,-0.282393004461,0.204529640644,0.214749110447
7300000000.0,0.206535852174,0.217094849759,0.790930661749,-0.285684756969,0.790930661749,-0.285684756969,0.206535852174,0.217094849759
7400000000.0,0.208559190337,0.219417790067,0.788837693764,-0.288953970904,0.788837693764,-0.288953970904,0.208559190337,0.219417790067
7500000000.0,0.210599343996,0.221717807865,0.786726941381,-0.292200526007,0.786726941381,-0.292200526007,0.210599343996,0.221717807865
7600000000.0,0.212656001222,0.223994785039,0.784598715231,-0.295424307403,0.784598715231,-0.295424307403,0.212656001222,0.223994785039
7700000000.0,0.21472884943,0.22624860884,0.78245332659,-0.298625205584,0.78245332659,-0.298625205584,0.21472884943,0.22624860884
7800000000.0,0.216817575496,0.228479171857,0.780291087251,-0.30180311638,0.780291087251,-0.30180311638,0.216817575496,0.228479171857
7900000000.0,0.218921865885,0.230686371996,0.778112309404,-0.304957940929,0.778112309404,-0.304957940929,0.218921865885,0.230686371996
8000000000.0,0.221041406768,0.232870112445,0.775917305515,-0.308089585657,0.775917305515,-0.308089585657,0.221041406768,0.232870112445
8100000000.0,0.223175884142,0.235030301642,0.773706388208,-0.311197962234,0.773706388208,-0.311197962234,0.223175884142,0.235030301642
8200000000.0,0.225324983943,0.237166853245,0.771479870152,-0.31428298755,0.771479870152,-0.31428298755,0.225324983943,0.237166853245
8300000000.0,0.227488392159,0.239279686092,0.769238063944,-0.317344583674,0.769238063944,-0.317344583674,0.227488392159,0.239279686092
8400000000.0,0.229665794939,0.241368724167,0.766981282005,-0.320382677815,0.766981282005,-0.320382677815,0.229665794939,0.241368724167
8500000000.0,0.231856878704,0.243433896552,0.764709836468,-0.323397202287,0.764709836468,-0.323397202287,0.231856878704,0.243433896552
8600000000.0,0.234061330245,0.245475137394,0.762424039076,-0.32638809446,0.762424039076,-0.32638809446,0.234061330245,0.245475137394
8700000000.0,0.236278836832,0.247492385856,0.760124201078,-0.329355296722,0.760124201078,-0.329355296722,0.236278836832,0.247492385856
8800000000.0,0.238509086312,0.249485586071,0.757810633129,-0.332298756431,0.757810633129,-0.332298756431,0.238509086312,0.249485586071
8900000000.0,0.240751767205,0.251454687096,0.755483645193,-0.335218425867,0.755483645193,-0.335218425867,0.240751767205,0.251454687096
9000000000.0,0.243006568802,0.253399642865,0.753143546447,-0.338114262184,0.753143546447,-0.338114262184,0.243006568802,0.253399642865
9100000000.0,0.245273181254,0.255320412134,0.750790645188,-0.340986227361,0.750790645188,-0.340986227361,0.245273181254,0.255320412134
9200000000.0,0.247551295667,0.257216958431,0.748425248743,-0.343834288145,0.748425248743,-0.343834288145,0.247551295667,0.257216958431
9300000000.0,0.249840604187,0.259089250006,0.746047663382,-0.346658416004,0.746047663382,-0.346658416004,0.249840604187,0.259089250006
9400000000.0,0.252140800088,0.260937259769,0.743658194228,-0.34945858707,0.743658194228,-0.34945858707,0.252140800088,0.260937259769
9500000000.0,0.254451577853,0.26276096524,0.741257145179,-0.352234782078,0.741257145179,-0.352234782078,0.254451577853,0.26276096524
9600000000.0,0.256772633259,0.26456034849,0.738844818822,-0.354986986318,0.738844818822,-0.354986986318,0.256772633259,0.26456034849
9700000000.0,0.25910366345,0.266335396081,0.736421516355,-0.357715189568,0.736421516355,-0.357715189568,0.25910366345,0.266335396081
9800000000.0,0.26144436702,0.268086099008,0.733987537514,-0.36041938604,0.733987537514,-0.36041938604,0.26144436702,0.268086099008
9900000000.0,0.263794444085,0.269812452638,0.731543180494,-0.363099574318,0.731543180494,-0.363099574318,0.263794444085,0.269812452638
10000000000.0,0.266153596352,0.27151445665,0.729088741879,-0.365755757294,0.729088741879,-0.365755757294,0.266153596352,0.27151445665
