freq (GHz),S11_real,S11_imag,S21_real,S21_imag,S12_real,S12_imag,S22_real,S22_imag
100000000.0,0.00752815950176,0.00225149474926,0.992466553366,-0.00438328413186,0.992466553366,-0.00438328413186,0.00752815950176,0.00225149474926
200000000.0,0.00760672420681,0.00450213870011,0.992379145139,-0.00876574439005,0.992379145139,-0.00876574439005,0.00760672420681,0.00450213870011
300000000.0,0.0076919799002,0.00675200296041,0.99228048895,-0.0131474703765,0.99228048895,-0.0131474703765,0.0076919799002,0.00675200296041
400000000.0,0.00779040898804,0.00900098415139,0.992164101667,-0.0175283730612,0.992164101667,-0.0175283730612,0.00779040898804,0.00900098415139
500000000.0,0.00790450234374,0.0112489384157,0.992027491553,-0.0219083208313,0.992027491553,-0.0219083208313,0.00790450234374,0.0112489384157
600000000.0,0.00803552410573,0.0134957040899,0.991869393466,-0.0262871628817,0.991869393466,-0.0262871628817,0.00803552410573,0.0134957040899
700000000.0,0.00818421454288,0.0157411098678,0.991689066003,-0.0306647377455,0.991689066003,-0.0306647377455,0.00818421454288,0.0157411098678
800000000.0,0.00835104657629,0.0179849786018,0.991486034985,-0.0350408773159,0.991486034985,-0.0350408773159,0.00835104657629,0.0179849786018
900000000.0,0.00853633999228,0.0202271293574,0.991259979241,-0.0394154090465,0.991259979241,-0.0394154090465,0.00853633999228,0.0202271293574
1000000000.0,0.00874031933208,0.022467378641,0.991010672727,-0.0437881572813,0.991010672727,-0.0437881572813,0.00874031933208,0.022467378641
1100000000.0,0.00896314607069,0.0247055411901,0.990737952352,-0.0481589441208,0.990737952352,-0.0481589441208,0.00896314607069,0.0247055411901
1200000000.0,0.00920493779101,0.0269414305107,0.9904416988,-0.0525275900178,0.9904416988,-0.0525275900178,0.00920493779101,0.0269414305107
1300000000.0,0.00946578024779,0.0291748592621,0.990121824475,-0.0568939142078,0.990121824475,-0.0568939142078,0.00946578024779,0.0291748592621
1400000000.0,0.00974573529807,0.0314056395417,0.989778265572,-0.0612577350306,0.989778265572,-0.0612577350306,0.00974573529807,0.0314056395417
1500000000.0,0.0100448463066,0.0336335831043,0.989410976671,-0.0656188701806,0.989410976671,-0.0656188701806,0.0100448463066,0.0336335831043
1600000000.0,0.0103631419439,0.0358585015353,0.989019926942,-0.0699771369044,0.989019926942,-0.0699771369044,0.0103631419439,0.0358585015353
1700000000.0,0.0107006389253,0.038080206391,0.988605097409,-0.0743323521637,0.988605097409,-0.0743323521637,0.0107006389253,0.038080206391
1800000000.0,0.0110573440307,0.0402985093157,0.988166478933,-0.0786843327698,0.988166478933,-0.0786843327698,0.0110573440307,0.0402985093157
1900000000.0,0.011433255625,0.0425132221408,0.987704070688,-0.0830328954993,0.987704070688,-0.0830328954993,0.011433255625,0.0425132221408
2000000000.0,0.0118283648204,0.04472415697,0.987217879006,-0.0873778571931,0.987217879006,-0.0873778571931,0.0118283648204,0.04472415697
2100000000.0,0.0122426563823,0.0469311262548,0.98670791647,-0.0917190348441,0.98670791647,-0.0917190348441,0.0122426563823,0.0469311262548
2200000000.0,0.0126761094418,0.0491339428615,0.986174201203,-0.096056245675,0.986174201203,-0.096056245675,0.0126761094418,0.0491339428615
2300000000.0,0.0131286980669,0.0513324201316,0.985616756298,-0.100389307208,0.985616756298,-0.100389307208,0.0131286980669,0.0513324201316
2400000000.0,0.0136003917233,0.0535263719372,0.985035609358,-0.104718037331,0.985035609358,-0.104718037331,0.0136003917233,0.0535263719372
2500000000.0,0.0140911556516,0.0557156127316,0.984430792121,-0.109042254352,0.984430792121,-0.109042254352,0.0140911556516,0.0557156127316
2600000000.0,0.0146009511792,0.0578999575972,0.983802340148,-0.113361777059,0.983802340148,-0.113361777059,0.0146009511792,0.0578999575972
2700000000.0,0.0151297359805,0.0600792222897,0.983150292565,-0.117676424765,0.983150292565,-0.117676424765,0.0151297359805,0.0600792222897
2800000000.0,0.0156774642962,0.0622532232799,0.982474691844,-0.121986017364,0.982474691844,-0.121986017364,0.0156774642962,0.0622532232799
2900000000.0,0.0162440871199,0.0644217777939,0.981775583616,-0.126290375365,0.981775583616,-0.126290375365,0.0162440871199,0.0644217777939
3000000000.0,0.0168295523578,0.0665847038505,0.981053016516,-0.130589319947,0.981053016516,-0.130589319947,0.0168295523578,0.0665847038505
3100000000.0,0.0174338049674,0.0687418202981,0.980307042039,-0.13488267299,0.980307042039,-0.13488267299,0.0174338049674,0.0687418202981
3200000000.0,0.0180567870786,0.0708929468491,0.979537714427,-0.139170257121,0.979537714427,-0.139170257121,0.0180567870786,0.0708929468491
3300000000.0,0.0186984380992,0.0730379041139,0.978745090559,-0.143451895747,0.978745090559,-0.143451895747,0.0186984380992,0.0730379041139
3400000000.0,0.01935869481,0.0751765136334,0.977929229857,-0.147727413094,0.977929229857,-0.147727413094,0.01935869481,0.0751765136334
3500000000.0,0.0200374914482,0.07730859791,0.977090194207,-0.151996634242,0.977090194207,-0.151996634242,0.0200374914482,0.07730859791
3600000000.0,0.020734759784,0.0794339804387,0.976228047877,-0.156259385154,0.976228047877,-0.156259385154,0.020734759784,0.0794339804387
3700000000.0,0.0214504291889,0.0815524857363,0.975342857457,-0.160515492717,0.975342857457,-0.160515492717,0.0214504291889,0.0815524857363
3800000000.0,0.0221844266988,0.0836639393707,0.974434691789,-0.164764784764,0.974434691789,-0.164764784764,0.0221844266988,0.0836639393707
3900000000.0,0.0229366770717,0.0857681679885,0.973503621915,-0.169007090114,0.973503621915,-0.169007090114,0.0229366770717,0.0857681679885
4000000000.0,0.0237071028413,0.0878649993425,0.972549721022,-0.173242238595,0.972549721022,-0.173242238595,0.0237071028413,0.0878649993425
4100000000.0,0.0244956243673,0.0899542623187,0.97157306439,-0.177470061075,0.97157306439,-0.177470061075,0.0244956243673,0.0899542623187
4200000000.0,0.0253021598818,0.092035786962,0.970573729353,-0.181690389491,0.970573729353,-0.181690389491,0.0253021598818,0.092035786962
4300000000.0,0.0261266255338,0.0941094045017,0.969551795246,-0.185903056878,0.969551795246,-0.185903056878,0.0261266255338,0.0941094045017
4400000000.0,0.0269689354311,0.0961749473761,0.968507343371,-0.190107897391,0.968507343371,-0.190107897391,0.0269689354311,0.0961749473761
4500000000.0,0.0278290016804,0.0982322492573,0.967440456953,-0.194304746336,0.967440456953,-0.194304746336,0.0278290016804,0.0982322492573
4600000000.0,0.0287067344256,0.100281145074,0.966351221104,-0.198493440191,0.966351221104,-0.198493440191,0.0287067344256,0.100281145074
4700000000.0,0.0296020418847,0.102321471036,0.965239722786,-0.202673816635,0.965239722786,-0.202673816635,0.0296020418847,0.102321471036
4800000000.0,0.0305148303853,0.104353064655,0.964106050777,-0.20684571457,0.964106050777,-0.20684571457,0.0305148303853,0.104353064655
4900000000.0,0.0314450043996,0.106375764767,0.962950295632,-0.211008974143,0.962950295632,-0.211008974143,0.0314450043996,0.106375764767
5000000000.0,0.0323924665777,0.108389411556,0.961772549657,-0.215163436772,0.961772549657,-0.215163436772,0.0323924665777,0.108389411556
5100000000.0,0.0333571177807,0.110393846572,0.960572906872,-0.219308945167,0.960572906872,-0.219308945167,0.0333571177807,0.110393846572
5200000000.0,0.0343388571129,0.112388912753,0.959351462978,-0.22344534335,0.959351462978,-0.22344534335,0.0343388571129,0.112388912753
5300000000.0,0.0353375819531,0.114374454444,0.958108315328,-0.227572476678,0.958108315328,-0.227572476678,0.0353375819531,0.114374454444
5400000000.0,0.036353187986,0.116350317418,0.956843562898,-0.231690191866,0.956843562898,-0.231690191866,0.036353187986,0.116350317418
5500000000.0,0.0373855692328,0.118316348893,0.955557306252,-0.235798337001,0.955557306252,-0.235798337001,0.0373855692328,0.118316348893
5600000000.0,0.0384346180813,0.120272397553,0.954249647516,-0.239896761566,0.954249647516,-0.239896761566,0.0384346180813,0.120272397553
5700000000.0,0.0395002253161,0.122218313564,0.952920690345,-0.243985316457,0.952920690345,-0.243985316457,0.0395002253161,0.122218313564
5800000000.0,0.0405822801479,0.124153948591,0.951570539898,-0.248063854005,0.951570539898,-0.248063854005,0.0405822801479,0.124153948591
5900000000.0,0.041680670243,0.126079155817,0.950199302805,-0.252132227987,0.950199302805,-0.252132227987,0.041680670243,0.126079155817
6000000000.0,0.0427952817527,0.127993789956,0.948807087138,-0.25619029365,0.948807087138,-0.25619029365,0.0427952817527,0.127993789956
6100000000.0,0.0439259993421,0.129897707274,0.947394002385,-0.260237907723,0.947394002385,-0.260237907723,0.0439259993421,0.129897707274
6200000000.0,0.0450727062189,0.131790765601,0.945960159421,-0.264274928439,0.945960159421,-0.264274928439,0.0450727062189,0.131790765601
6300000000.0,0.0462352841623,0.133672824346,0.944505670477,-0.268301215543,0.944505670477,-0.268301215543,0.0462352841623,0.133672824346
6400000000.0,0.0474136135512,0.135543744513,0.943030649112,-0.272316630313,0.943030649112,-0.272316630313,0.0474136135512,0.135543744513
6500000000.0,0.0486075733933,0.137403388714,0.941535210189,-0.276321035575,0.941535210189,-0.276321035575,0.0486075733933,0.137403388714
6600000000.0,0.0498170413527,0.139251621184,0.940019469841,-0.280314295711,0.940019469841,-0.280314295711,0.0498170413527,0.139251621184
6700000000.0,0.0510418937789,0.141088307791,0.938483545446,-0.28429627668,0.938483545446,-0.28429627668,0.0510418937789,0.141088307791
6800000000.0,0.0522820057345,0.142913316051,0.936927555598,-0.288266846028,0.936927555598,-0.288266846028,0.0522820057345,0.142913316051
6900000000.0,0.0535372510238,0.144726515142,0.935351620081,-0.2922258729,0.935351620081,-0.2922258729,0.0535372510238,0.144726515142
7000000000.0,0.0548075022204,0.14652777591,0.933755859839,-0.296173228052,0.933755859839,-0.296173228052,0.0548075022204,0.14652777591
7100000000.0,0.0560926306956,0.148316970885,0.932140396947,-0.300108783865,0.932140396947,-0.300108783865,0.0560926306956,0.148316970885
7200000000.0,0.0573925066464,0.150093974291,0.930505354586,-0.304032414355,0.930505354586,-0.304032414355,0.0573925066464,0.150093974291
7300000000.0,0.0587069991231,0.151858662054,0.928850857014,-0.307943995181,0.928850857014,-0.307943995181,0.0587069991231,0.151858662054
7400000000.0,0.0600359760576,0.153610911813,0.927177029537,-0.311843403661,0.927177029537,-0.311843403661,0.0600359760576,0.153610911813
7500000000.0,0.0613793042907,0.15535060293,0.925483998485,-0.315730518774,0.925483998485,-0.315730518774,0.0613793042907,0.15535060293
7600000000.0,0.0627368496004,0.157077616497,0.923771891179,-0.319605221177,0.923771891179,-0.319605221177,0.0627368496004,0.157077616497
7700000000.0,0.0641084767293,0.158791835347,0.922040835907,-0.323467393209,0.922040835907,-0.323467393209,0.0641084767293,0.158791835347
7800000000.0,0.0654940494123,0.160493144059,0.920290961896,-0.327316918898,0.920290961896,-0.327316918898,0.0654940494123,0.160493144059
7900000000.0,0.0668934304042,0.162181428967,0.918522399285,-0.331153683975,0.918522399285,-0.331153683975,0.0668934304042,0.162181428967
8000000000.0,0.0683064815073,0.163856578167,0.916735279093,-0.334977575873,0.916735279093,-0.334977575873,0.0683064815073,0.163856578167
8100000000.0,0.0697330635988,0.165518481523,0.9149297332,-0.338788483742,0.9149297332,-0.338788483742,0.0697330635988,0.165518481523
8200000000.0,0.0711730366582,0.167167030672,0.913105894312,-0.342586298447,0.913105894312,-0.342586298447,0.0711730366582,0.167167030672
8300000000.0,0.0726262597946,0.168802119031,0.911263895938,-0.346370912582,0.911263895938,-0.346370912582,0.0726262597946,0.168802119031
8400000000.0,0.074092591274,0.170423641803,0.909403872358,-0.350142220469,0.909403872358,-0.350142220469,0.074092591274,0.170423641803
8500000000.0,0.0755718885465,0.17203149598,0.907525958605,-0.353900118166,0.907525958605,-0.353900118166,0.0755718885465,0.17203149598
8600000000.0,0.0770640082731,0.173625580346,0.905630290427,-0.357644503472,0.905630290427,-0.357644503472,0.0770640082731,0.173625580346
8700000000.0,0.0785688063533,0.175205795485,0.903717004269,-0.361375275928,0.903717004269,-0.361375275928,0.0785688063533,0.175205795485
8800000000.0,0.0800861379512,0.176772043779,0.901786237241,-0.365092336823,0.901786237241,-0.365092336823,0.0800861379512,0.176772043779
8900000000.0,0.0816158575228,0.178324229416,0.899838127092,-0.368795589195,0.899838127092,-0.368795589195,0.0816158575228,0.178324229416
9000000000.0,0.0831578188426,0.179862258389,0.897872812184,-0.372484937839,0.897872812184,-0.372484937839,0.0831578188426,0.179862258389
9100000000.0,0.08471187503,0.1813860385,0.895890431468,-0.376160289301,0.895890431468,-0.376160289301,0.08471187503,0.1813860385
9200000000.0,0.0862778785761,0.182895479359,0.893891124452,-0.379821551885,0.893891124452,-0.379821551885,0.0862778785761,0.182895479359
9300000000.0,0.0878556813695,0.184390492391,0.891875031179,-0.383468635655,0.891875031179,-0.383468635655,0.0878556813695,0.184390492391
9400000000.0,0.0894451347231,0.185870990828,0.8898422922,-0.387101452433,0.8898422922,-0.387101452433,0.0894451347231,0.185870990828
9500000000.0,0.0910460893994,0.187336889717,0.887793048547,-0.390719915801,0.887793048547,-0.390719915801,0.0910460893994,0.187336889717
9600000000.0,0.0926583956373,0.188788105918,0.885727441706,-0.3943239411,0.885727441706,-0.3943239411,0.0926583956373,0.188788105918
9700000000.0,0.0942819031773,0.190224558101,0.883645613596,-0.397913445431,0.883645613596,-0.397913445431,0.0942819031773,0.190224558101
9800000000.0,0.0959164612873,0.191646166747,0.881547706537,-0.401488347654,0.881547706537,-0.401488347654,0.0959164612873,0.191646166747
9900000000.0,0.097561918788,0.193052854149,0.879433863229,-0.405048568386,0.879433863229,-0.405048568386,0.097561918788,0.193052854149
10000000000.0,0.0992181240783,0.194444544405,0.877304226725,-0.40859403,0.877304226725,-0.40859403,0.0992181240783,0.194444544405
