freq (GHz),S11_real,S11_imag,S21_real,S21_imag,S12_real,S12_imag,S22_real,S22_imag
100000000.0,0.000495325113752,-0.00501657289462,0.999422397059,-0.00679737592886,0.999422397059,-0.00679737592886,0.000495325113752,-0.00501657289462
200000000.0,0.000390899862466,-0.0100319704314,0.999305968056,-0.0135935890787,0.999305968056,-0.0135935890787,0.000390899862466,-0.0100319704314
300000000.0,0.000217378787834,-0.0150450733933,0.999119128647,-0.0203875550066,0.999119128647,-0.0203875550066,0.000217378787834,-0.0150450733933
400000000.0,-2.47165212875e-05,-0.0200547519701,0.998861474819,-0.0271781688344,0.998861474819,-0.0271781688344,-2.47165212878e-05,-0.0200547519701
500000000.0,-0.000335125173292,-0.0250598713193,0.998532911467,-0.0339643175239,0.998532911467,-0.0339643175239,-0.000335125173292,-0.0250598713193
600000000.0,-0.000713649164518,-0.0300592944193,0.998133455009,-0.0407448841542,0.998133455009,-0.0407448841542,-0.000713649164518,-0.0300592944193
700000000.0,-0.00116010310895,-0.0350518839195,0.997663183336,-0.0475187503668,0.997663183336,-0.0475187503668,-0.00116010310895,-0.0350518839195
800000000.0,-0.00167429591532,-0.0400365035405,0.99712221756,-0.0542847980793,0.99712221756,-0.0542847980793,-0.00167429591532,-0.0400365035405
900000000.0,-0.00225602266924,-0.0450120192334,0.996510713879,-0.0610419108341,0.996510713879,-0.0610419108341,-0.00225602266924,-0.0450120192334
1000000000.0,-0.00290506057244,-0.0499773001981,0.995828859403,-0.0677889749404,0.995828859403,-0.0677889749404,-0.00290506057244,-0.0499773001981
1100000000.0,-0.00362116674943,-0.0549312198091,0.99507686978,-0.0745248804866,0.99507686978,-0.0745248804866,-0.00362116674943,-0.0549312198091
1200000000.0,-0.0044040770123,-0.059872656477,0.99425498771,-0.0812485222657,0.99425498771,-0.0812485222657,-0.0044040770123,-0.059872656477
1300000000.0,-0.00525350516119,-0.0648004944643,0.993363481941,-0.0879588006384,0.993363481941,-0.0879588006384,-0.00525350516119,-0.0648004944643
1400000000.0,-0.00616914260647,-0.0697136246632,0.992402646521,-0.0946546223486,0.992402646521,-0.0946546223486,-0.00616914260647,-0.0697136246632
1500000000.0,-0.00715065819684,-0.0746109453441,0.991372800211,-0.101334901302,0.991372800211,-0.101334901302,-0.00715065819684,-0.0746109453441
1600000000.0,-0.00819769818668,-0.0794913628788,0.990274285981,-0.107998559314,0.990274285981,-0.107998559314,-0.00819769818668,-0.0794913628788
1700000000.0,-0.00930988630279,-0.0843537924404,0.98910747056,-0.114644526828,0.98910747056,-0.114644526828,-0.00930988630279,-0.0843537924404
1800000000.0,-0.0104868238851,-0.0891971586825,0.98787274401,-0.121271743613,0.98787274401,-0.121271743613,-0.0104868238851,-0.0891971586825
1900000000.0,-0.0117280900853,-0.0940203963992,0.986570519318,-0.127879159439,0.986570519318,-0.127879159439,-0.0117280900853,-0.0940203963992
2000000000.0,-0.0130332421118,-0.0988224511654,0.985201231988,-0.134465734727,0.985201231988,-0.134465734727,-0.0130332421118,-0.0988224511654
2100000000.0,-0.0144018155144,-0.10360227996,0.98376533963,-0.141030441184,0.98376533963,-0.141030441184,-0.0144018155144,-0.10360227996
2200000000.0,-0.0158333245008,-0.10835885177,0.982263321548,-0.147572262417,0.982263321548,-0.147572262417,-0.0158333245008,-0.10835885177
2300000000.0,-0.017327262284,-0.113091148175,0.98069567831,-0.154090194527,0.98069567831,-0.154090194527,-0.017327262284,-0.113091148175
2400000000.0,-0.018883101454,-0.117798163918,0.97906293132,-0.160583246682,0.97906293132,-0.160583246682,-0.018883101454,-0.117798163918
2500000000.0,-0.020500294374,-0.122478907453,0.977365622364,-0.167050441678,0.977365622364,-0.167050441678,-0.020500294374,-0.122478907453
2600000000.0,-0.0221782735976,-0.127132401477,0.975604313157,-0.173490816472,0.975604313157,-0.173490816472,-0.0221782735976,-0.127132401477
2700000000.0,-0.0239164523046,-0.131757683443,0.973779584869,-0.1799034227,0.973779584869,-0.1799034227,-0.0239164523046,-0.131757683443
2800000000.0,-0.0257142247562,-0.13635380605,0.971892037644,-0.186287327176,0.971892037644,-0.186287327176,-0.0257142247562,-0.13635380605
2900000000.0,-0.0275709667651,-0.140919837722,0.969942290104,-0.192641612374,0.969942290104,-0.192641612374,-0.0275709667651,-0.140919837722
3000000000.0,-0.0294860361825,-0.145454863063,0.967930978841,-0.198965376881,0.967930978841,-0.198965376881,-0.0294860361825,-0.145454863063
3100000000.0,-0.0314587733976,-0.149957983285,0.965858757906,-0.205257735839,0.965858757906,-0.205257735839,-0.0314587733976,-0.149957983285
3200000000.0,-0.0334885018512,-0.154428316634,0.963726298273,-0.211517821363,0.963726298273,-0.211517821363,-0.0334885018512,-0.154428316634
3300000000.0,-0.0355745285611,-0.158864998777,0.961534287307,-0.217744782941,0.961534287307,-0.217744782941,-0.0355745285611,-0.158864998777
3400000000.0,-0.0377161446574,-0.163267183179,0.959283428215,-0.223937787809,0.959283428215,-0.223937787809,-0.0377161446574,-0.163267183179
3500000000.0,-0.0399126259296,-0.167634041462,0.956974439489,-0.230096021312,0.956974439489,-0.230096021312,-0.0399126259296,-0.167634041462
3600000000.0,-0.0421632333807,-0.171964763731,0.954608054347,-0.236218687236,0.954608054347,-0.236218687236,-0.0421632333807,-0.171964763731
3700000000.0,-0.0444672137909,-0.176258558896,0.952185020159,-0.242305008128,0.952185020159,-0.242305008128,-0.0444672137909,-0.176258558896
3800000000.0,-0.0468238002875,-0.180514654958,0.949706097873,-0.248354225586,0.949706097873,-0.248354225586,-0.0468238002875,-0.180514654958
3900000000.0,-0.0492322129215,-0.184732299284,0.94717206143,-0.254365600539,0.94717206143,-0.254365600539,-0.0492322129215,-0.184732299284
4000000000.0,-0.0516916592498,-0.188910758858,0.944583697179,-0.260338413494,0.944583697179,-0.260338413494,-0.0516916592498,-0.188910758858
4100000000.0,-0.0542013349209,-0.193049320511,0.941941803288,-0.266271964772,0.941941803288,-0.266271964772,-0.0542013349209,-0.193049320511
4200000000.0,-0.0567604242658,-0.19714729113,0.939247189147,-0.272165574718,0.939247189147,-0.272165574718,-0.0567604242658,-0.19714729113
4300000000.0,-0.0593681008904,-0.201203997846,0.93650067477,-0.27801858389,0.93650067477,-0.27801858389,-0.0593681008904,-0.201203997846
4400000000.0,-0.0620235282705,-0.205218788206,0.933703090204,-0.283830353231,0.933703090204,-0.283830353231,-0.0620235282705,-0.205218788206
4500000000.0,-0.0647258603481,-0.209191030317,0.930855274921,-0.289600264217,0.930855274921,-0.289600264217,-0.0647258603481,-0.209191030317
4600000000.0,-0.067474242128,-0.213120112975,0.927958077225,-0.295327718988,0.927958077225,-0.295327718988,-0.067474242128,-0.213120112975
4700000000.0,-0.0702678102738,-0.217005445772,0.925012353652,-0.301012140453,0.925012353652,-0.301012140453,-0.0702678102738,-0.217005445772
4800000000.0,-0.0731056937036,-0.220846459187,0.922018968372,-0.30665297238,0.922018968372,-0.30665297238,-0.0731056937036,-0.220846459187
4900000000.0,-0.0759870141827,-0.224642604647,0.91897879259,-0.31224967947,0.91897879259,-0.31224967947,-0.0759870141827,-0.224642604647
5000000000.0,-0.078910886915,-0.228393354585,0.915892703961,-0.317801747399,0.915892703961,-0.317801747399,-0.078910886915,-0.228393354585
5100000000.0,-0.0818764211307,-0.23209820246,0.912761585995,-0.323308682853,0.912761585995,-0.323308682853,-0.0818764211307,-0.23209820246
5200000000.0,-0.0848827206694,-0.235756662774,0.909586327472,-0.328770013541,0.909586327472,-0.328770013541,-0.0848827206694,-0.235756662774
5300000000.0,-0.08792888456,-0.239368271066,0.906367821863,-0.334185288186,0.906367821863,-0.334185288186,-0.08792888456,-0.239368271066
5400000000.0,-0.0910140075947,-0.242932583878,0.903106966752,-0.339554076501,0.903106966752,-0.339554076501,-0.0910140075947,-0.242932583878
5500000000.0,-0.094137180897,-0.246449178721,0.899804663271,-0.344875969144,0.899804663271,-0.344875969144,-0.094137180897,-0.246449178721
5600000000.0,-0.0972974924839,-0.24991765401,0.89646181553,-0.350150577665,0.89646181553,-0.350150577665,-0.0972974924839,-0.24991765401
5700000000.0,-0.100494027821,-0.253337628986,0.893079330066,-0.355377534423,0.893079330066,-0.355377534423,-0.100494027821,-0.253337628986
5800000000.0,-0.10372587037,-0.256708743626,0.889658115292,-0.360556492495,0.889658115292,-0.360556492495,-0.10372587037,-0.256708743626
5900000000.0,-0.10699210213,-0.260030658529,0.886199080957,-0.365687125569,0.886199080957,-0.365687125569,-0.10699210213,-0.260030658529
6000000000.0,-0.110291804165,-0.263303054793,0.882703137612,-0.370769127816,0.882703137612,-0.370769127816,-0.110291804165,-0.263303054793
6100000000.0,-0.11362405713,-0.266525633875,0.879171196088,-0.375802213753,0.879171196088,-0.375802213753,-0.11362405713,-0.266525633875
6200000000.0,-0.116987941784,-0.269698117437,0.875604166981,-0.380786118089,0.875604166981,-0.380786118089,-0.116987941784,-0.269698117437
6300000000.0,-0.120382539491,-0.272820247175,0.872002960148,-0.385720595555,0.872002960148,-0.385720595555,-0.120382539491,-0.272820247175
6400000000.0,-0.123806932716,-0.275891784639,0.86836848421,-0.390605420723,0.86836848421,-0.390605420723,-0.123806932716,-0.275891784639
6500000000.0,-0.127260205507,-0.278912511035,0.864701646075,-0.395440387813,0.864701646075,-0.395440387813,-0.127260205507,-0.278912511035
6600000000.0,-0.130741443966,-0.281882227022,0.861003350456,-0.400225310485,0.861003350456,-0.400225310485,-0.130741443966,-0.281882227022
6700000000.0,-0.134249736712,-0.284800752487,0.857274499416,-0.404960021616,0.857274499416,-0.404960021616,-0.134249736712,-0.284800752487
6800000000.0,-0.13778417533,-0.287667926318,0.853515991911,-0.409644373077,0.853515991911,-0.409644373077,-0.13778417533,-0.287667926318
6900000000.0,-0.141343854808,-0.290483606161,0.849728723358,-0.414278235485,0.849728723358,-0.414278235485,-0.141343854808,-0.290483606161
7000000000.0,-0.144927873968,-0.293247668167,0.845913585202,-0.418861497955,0.845913585202,-0.418861497955,-0.144927873968,-0.293247668167
7100000000.0,-0.148535335873,-0.295960006729,0.842071464504,-0.423394067835,0.842071464504,-0.423394067835,-0.148535335873,-0.295960006729
7200000000.0,-0.152165348235,-0.298620534215,0.838203243535,-0.427875870438,0.838203243535,-0.427875870438,-0.152165348235,-0.298620534215
7300000000.0,-0.155817023804,-0.301229180683,0.834309799388,-0.432306848762,0.834309799388,-0.432306848762,-0.155817023804,-0.301229180683
7400000000.0,-0.159489480742,-0.303785893596,0.8303920036,-0.436686963202,0.8303920036,-0.436686963202,-0.159489480742,-0.303785893596
7500000000.0,-0.163181842992,-0.306290637525,0.826450721783,-0.441016191252,0.826450721783,-0.441016191252,-0.163181842992,-0.306290637525
7600000000.0,-0.166893240627,-0.308743393845,0.822486813276,-0.445294527206,0.822486813276,-0.445294527206,-0.166893240627,-0.308743393845
7700000000.0,-0.17062281019,-0.31114416043,0.8185011308,-0.449521981847,0.8185011308,-0.449521981847,-0.17062281019,-0.31114416043
7800000000.0,-0.174369695021,-0.31349295133,0.814494520134,-0.453698582132,0.814494520134,-0.453698582132,-0.174369695021,-0.31349295133
7900000000.0,-0.17813304557,-0.315789796457,0.810467819801,-0.45782437087,0.810467819801,-0.45782437087,-0.17813304557,-0.315789796457
8000000000.0,-0.181912019698,-0.318034741254,0.806421860762,-0.461899406398,0.806421860762,-0.461899406398,-0.181912019698,-0.318034741254
8100000000.0,-0.185705782966,-0.320227846367,0.802357466131,-0.465923762248,0.802357466131,-0.465923762248,-0.185705782966,-0.320227846367
8200000000.0,-0.189513508909,-0.322369187306,0.7982754509,-0.469897526815,0.7982754509,-0.469897526815,-0.189513508909,-0.322369187306
8300000000.0,-0.193334379297,-0.324458854113,0.79417662167,-0.473820803015,0.79417662167,-0.473820803015,-0.193334379297,-0.324458854113
8400000000.0,-0.197167584388,-0.326496951014,0.790061776407,-0.477693707948,0.790061776407,-0.477693707948,-0.197167584388,-0.326496951014
8500000000.0,-0.201012323164,-0.328483596078,0.7859317042,-0.48151637255,0.7859317042,-0.48151637255,-0.201012323164,-0.328483596078
8600000000.0,-0.204867803553,-0.330418920869,0.781787185034,-0.485288941249,0.781787185034,-0.485288941249,-0.204867803553,-0.330418920869
8700000000.0,-0.208733242647,-0.332303070097,0.777628989582,-0.489011571613,0.777628989582,-0.489011571613,-0.208733242647,-0.332303070097
8800000000.0,-0.212607866895,-0.334136201273,0.773457879,-0.492684434006,0.773457879,-0.492684434006,-0.212607866895,-0.334136201273
8900000000.0,-0.216490912297,-0.33591848435,0.769274604739,-0.496307711233,0.769274604739,-0.496307711233,-0.216490912297,-0.33591848435
9000000000.0,-0.220381624577,-0.337650101378,0.765079908367,-0.499881598191,0.765079908367,-0.499881598191,-0.220381624577,-0.337650101378
9100000000.0,-0.224279259347,-0.339331246151,0.760874521408,-0.503406301513,0.760874521408,-0.503406301513,-0.224279259347,-0.339331246151
9200000000.0,-0.228183082262,-0.340962123855,0.756659165184,-0.506882039225,0.756659165184,-0.506882039225,-0.228183082262,-0.340962123855
9300000000.0,-0.232092369159,-0.342542950714,0.752434550673,-0.510309040388,0.752434550673,-0.510309040388,-0.232092369159,-0.342542950714
9400000000.0,-0.236006406185,-0.344073953649,0.748201378381,-0.51368754475,0.748201378381,-0.51368754475,-0.236006406185,-0.344073953649
9500000000.0,-0.239924489922,-0.345555369918,0.743960338221,-0.5170178024,0.743960338221,-0.5170178024,-0.239924489922,-0.345555369918
9600000000.0,-0.243845927488,-0.346987446778,0.739712109404,-0.520300073417,0.739712109404,-0.520300073417,-0.243845927488,-0.346987446778
9700000000.0,-0.24777003664,-0.348370441134,0.735457360338,-0.523534627528,0.735457360338,-0.523534627528,-0.24777003664,-0.348370441134
9800000000.0,-0.251696145857,-0.3497046192,0.731196748545,-0.526721743762,0.731196748545,-0.526721743762,-0.251696145857,-0.3497046192
9900000000.0,-0.25562359442,-0.350990256154,0.726930920579,-0.529861710112,0.726930920579,-0.529861710112,-0.25562359442,-0.350990256154
10000000000.0,-0.259551732478,-0.352227635804,0.722660511958,-0.532954823195,0.722660511958,-0.532954823195,-0.259551732478,-0.352227635804
