freq (GHz),S11_real,S11_imag,S21_real,S21_imag,S12_real,S12_imag,S22_real,S22_imag
100000000.0,0.0184862804959,0.00262425638872,0.981511037634,-0.00374600978575,0.981511037634,-0.00374600978575,0.0184862804959,0.00262425638872
200000000.0,0.0186359185292,0.00524677760825,0.98135845133,-0.00749030082302,0.98135845133,-0.00749030082302,0.0186359185292,0.00524677760825
300000000.0,0.0187732644098,0.00786801125127,0.981216890567,-0.0112333313142,0.981216890567,-0.0112333313142,0.0187732644098,0.00786801125127
400000000.0,0.0189141216323,0.0104879924204,0.981070551625,-0.0149751449848,0.981070551625,-0.0149751449848,0.0189141216323,0.0104879924204
500000000.0,0.0190645779889,0.0131066602525,0.980913346465,-0.0187156885879,0.980913346465,-0.0187156885879,0.0190645779889,0.0131066602525
600000000.0,0.019227735404,0.0157239114617,0.980742172889,-0.0224548657917,0.980742172889,-0.0224548657917,0.019227735404,0.0157239114617
700000000.0,0.0194054217023,0.0183396196011,0.980555202772,-0.0261925566173,0.980555202772,-0.0261925566173,0.0194054217023,0.0183396196011
800000000.0,0.0195988156587,0.0209536440153,0.980351257011,-0.0299286264966,0.980351257011,-0.0299286264966,0.0195988156587,0.0209536440153
900000000.0,0.0198087254284,0.0235658346632,0.980129527101,-0.0336629311648,0.980129527101,-0.0336629311648,0.0198087254284,0.0235658346632
1000000000.0,0.0200357297387,0.0261760349857,0.979889433936,-0.0373953195776,0.979889433936,-0.0373953195776,0.0200357297387,0.0261760349857
1100000000.0,0.0202802564073,0.0287840837374,0.979630549296,-0.0411256357783,0.979630549296,-0.0411256357783,0.0202802564073,0.0287840837374
1200000000.0,0.0205426291497,0.0313898162227,0.979352549039,-0.0448537201625,0.979352549039,-0.0448537201625,0.0205426291497,0.0313898162227
1300000000.0,0.0208230970399,0.0339930651673,0.97905518364,-0.048579410371,0.97905518364,-0.048579410371,0.0208230970399,0.0339930651673
1400000000.0,0.0211218538843,0.0365936613557,0.978738258818,-0.0523025419453,0.978738258818,-0.0523025419453,0.0211218538843,0.0365936613557
1500000000.0,0.0214390514294,0.0391914341115,0.978401622331,-0.056022948822,0.978401622331,-0.056022948822,0.0214390514294,0.0391914341115
1600000000.0,0.021774808644,0.0417862116694,0.978045154689,-0.0597404637176,0.978045154689,-0.0597404637176,0.021774808644,0.0417862116694
1700000000.0,0.0221292184129,0.0443778214703,0.977668762466,-0.0634549184331,0.977668762466,-0.0634549184331,0.0221292184129,0.0443778214703
1800000000.0,0.0225023524726,0.0469660903994,0.977272373363,-0.0671661441012,0.977272373363,-0.0671661441012,0.0225023524726,0.0469660903994
1900000000.0,0.0228942651227,0.0495508449823,0.976855932496,-0.0708739713908,0.976855932496,-0.0708739713908,0.0228942651227,0.0495508449823
2000000000.0,0.0233049960655,0.0521319115505,0.976419399555,-0.0745782306777,0.976419399555,-0.0745782306777,0.0233049960655,0.0521319115505
2100000000.0,0.023734572611,0.0547091163804,0.975962746605,-0.0782787521908,0.975962746605,-0.0782787521908,0.023734572611,0.0547091163804
2200000000.0,0.0241830114145,0.0572822858148,0.975485956344,-0.0819753661381,0.975485956344,-0.0819753661381,0.0241830114145,0.0572822858148
2300000000.0,0.0246503198613,0.0598512463679,0.974989020719,-0.085667902817,0.974989020719,-0.085667902817,0.0246503198613,0.0598512463679
2400000000.0,0.0251364971844,0.062415824819,0.974471939812,-0.0893561927111,0.974471939812,-0.0893561927111,0.0251364971844,0.062415824819
2500000000.0,0.025641535375,0.0649758482951,0.973934720924,-0.0930400665781,0.973934720924,-0.0930400665781,0.025641535375,0.0649758482951
2600000000.0,0.026165419932,0.0675311443465,0.973377377833,-0.0967193555275,0.973377377833,-0.0967193555275,0.026165419932,0.0675311443465
2700000000.0,0.0267081304845,0.0700815410148,0.972799930163,-0.100393891092,0.972799930163,-0.100393891092,0.0267081304845,0.0700815410148
2800000000.0,0.0272696413131,0.0726268668952,0.972202402873,-0.104063505295,0.972202402873,-0.104063505295,0.0272696413131,0.0726268668952
2900000000.0,0.0278499217898,0.0751669511947,0.971584825809,-0.107728030706,0.971584825809,-0.107728030706,0.0278499217898,0.0751669511947
3000000000.0,0.0284489367525,0.0777016237851,0.970947233333,-0.111387300502,0.970947233333,-0.111387300502,0.0284489367525,0.0777016237851
3100000000.0,0.0290666468258,0.0802307152534,0.970289664003,-0.115041148518,0.970289664003,-0.115041148518,0.0290666468258,0.0802307152534
3200000000.0,0.0297030086976,0.0827540569489,0.969612160296,-0.118689409294,0.969612160296,-0.118689409294,0.0297030086976,0.0827540569489
3300000000.0,0.0303579753594,0.0852714810271,0.968914768368,-0.122331918123,0.968914768368,-0.122331918123,0.0303579753594,0.0852714810271
3400000000.0,0.0310314963165,0.0877828204917,0.968197537843,-0.125968511096,0.968197537843,-0.125968511096,0.0310314963165,0.0877828204917
3500000000.0,0.031723517773,0.0902879092349,0.967460521629,-0.12959902514,0.967460521629,-0.12959902514,0.031723517773,0.0902879092349
3600000000.0,0.0324339827948,0.0927865820746,0.966703775756,-0.133223298063,0.966703775756,-0.133223298063,0.0324339827948,0.0927865820746
3700000000.0,0.0331628314562,0.0952786747914,0.965927359228,-0.136841168585,0.965927359228,-0.136841168585,0.0331628314562,0.0952786747914
3800000000.0,0.0339100009696,0.0977640241629,0.965131333895,-0.14045247638,0.965131333895,-0.14045247638,0.0339100009696,0.0977640241629
3900000000.0,0.0346754258033,0.100242467997,0.964315764335,-0.144057062107,0.964315764335,-0.144057062107,0.0346754258033,0.100242467997
4000000000.0,0.0354590377881,0.102713845165,0.963480717744,-0.147654767446,0.963480717744,-0.147654767446,0.0354590377881,0.102713845165
4100000000.0,0.0362607662142,0.10517799563,0.962626263847,-0.151245435127,0.962626263847,-0.151245435127,0.0362607662142,0.10517799563
4200000000.0,0.03708053792,0.10763476048,0.961752474802,-0.154828908964,0.961752474802,-0.154828908964,0.03708053792,0.10763476048
4300000000.0,0.0379182773739,0.110083981954,0.960859425121,-0.158405033883,0.960859425121,-0.158405033883,0.0379182773739,0.110083981954
4400000000.0,0.0387739067499,0.11252550347,0.959947191596,-0.161973655952,0.959947191596,-0.161973655952,0.0387739067499,0.11252550347
4500000000.0,0.039647345998,0.114959169655,0.959015853227,-0.165534622406,0.959015853227,-0.165534622406,0.039647345998,0.114959169655
4600000000.0,0.04053851291,0.117384826366,0.958065491157,-0.169087781679,0.958065491157,-0.169087781679,0.04053851291,0.117384826366
4700000000.0,0.0414473231809,0.119802320718,0.957096188608,-0.172632983423,0.957096188608,-0.172632983423,0.0414473231809,0.119802320718
4800000000.0,0.0423736904675,0.12221150111,0.95610803083,-0.176170078541,0.95610803083,-0.176170078541,0.0423736904675,0.12221150111
4900000000.0,0.0433175264431,0.124612217245,0.955101105036,-0.179698919206,0.955101105036,-0.179698919206,0.0433175264431,0.124612217245
5000000000.0,0.0442787408499,0.127004320154,0.954075500359,-0.183219358886,0.954075500359,-0.183219358886,0.0442787408499,0.127004320154
5100000000.0,0.0452572415489,0.129387662219,0.953031307797,-0.186731252368,0.953031307797,-0.186731252368,0.0452572415489,0.129387662219
5200000000.0,0.0462529345678,0.131762097196,0.951968620166,-0.190234455777,0.951968620166,-0.190234455777,0.0462529345678,0.131762097196
5300000000.0,0.0472657241471,0.134127480231,0.950887532056,-0.193728826602,0.950887532056,-0.193728826602,0.0472657241471,0.134127480231
5400000000.0,0.0482955127837,0.136483667883,0.949788139785,-0.197214223714,0.949788139785,-0.197214223714,0.0482955127837,0.136483667883
5500000000.0,0.0493422012745,0.138830518146,0.948670541356,-0.200690507385,0.948670541356,-0.200690507385,0.0493422012745,0.138830518146
5600000000.0,0.0504056887572,0.141167890462,0.94753483642,-0.20415753931,0.94753483642,-0.20415753931,0.0504056887572,0.141167890462
5700000000.0,0.0514858727511,0.143495645744,0.946381126229,-0.207615182624,0.946381126229,-0.207615182624,0.0514858727511,0.143495645744
5800000000.0,0.0525826491958,0.145813646391,0.945209513602,-0.211063301921,0.945209513602,-0.211063301921,0.0525826491958,0.145813646391
5900000000.0,0.0536959124901,0.148121756307,0.944020102884,-0.214501763272,0.944020102884,-0.214501763272,0.0536959124901,0.148121756307
6000000000.0,0.054825555529,0.150419840914,0.942812999911,-0.21793043424,0.942812999911,-0.21793043424,0.054825555529,0.150419840914
6100000000.0,0.0559714697407,0.152707767171,0.941588311971,-0.221349183897,0.941588311971,-0.221349183897,0.0559714697407,0.152707767171
6200000000.0,0.0571335451223,0.15498540359,0.94034614777,-0.224757882841,0.94034614777,-0.224757882841,0.0571335451223,0.15498540359
6300000000.0,0.0583116702755,0.157252620246,0.939086617397,-0.22815640321,0.939086617397,-0.22815640321,0.0583116702755,0.157252620246
6400000000.0,0.0595057324413,0.159509288794,0.937809832285,-0.231544618696,0.937809832285,-0.231544618696,0.0595057324413,0.159509288794
6500000000.0,0.0607156175343,0.161755282485,0.936515905182,-0.234922404561,0.936515905182,-0.234922404561,0.0607156175343,0.161755282485
6600000000.0,0.0619412101766,0.163990476172,0.935204950116,-0.238289637647,0.935204950116,-0.238289637647,0.0619412101766,0.163990476172
6700000000.0,0.0631823937314,0.16621474633,0.933877082358,-0.241646196392,0.933877082358,-0.241646196392,0.0631823937314,0.16621474633
6800000000.0,0.0644390503356,0.168427971063,0.932532418394,-0.244991960841,0.932532418394,-0.244991960841,0.0644390503356,0.168427971063
6900000000.0,0.0657110609331,0.170630030116,0.93117107589,-0.248326812656,0.93117107589,-0.248326812656,0.0657110609331,0.170630030116
7000000000.0,0.0669983053064,0.172820804888,0.92979317366,-0.251650635131,0.92979317366,-0.251650635131,0.0669983053064,0.172820804888
7100000000.0,0.0683006621094,0.17500017844,0.928398831631,-0.254963313198,0.928398831631,-0.254963313198,0.0683006621094,0.17500017844
7200000000.0,0.0696180088985,0.177168035505,0.926988170819,-0.258264733441,0.926988170819,-0.258264733441,0.0696180088985,0.177168035505
7300000000.0,0.0709502221645,0.179324262498,0.92556131329,-0.261554784102,0.92556131329,-0.261554784102,0.0709502221645,0.179324262498
7400000000.0,0.0722971773636,0.181468747522,0.924118382132,-0.264833355095,0.924118382132,-0.264833355095,0.0722971773636,0.181468747522
7500000000.0,0.0736587489484,0.183601380381,0.922659501424,-0.268100338008,0.922659501424,-0.268100338008,0.0736587489484,0.183601380381
7600000000.0,0.0750348103986,0.185722052584,0.921184796206,-0.271355626115,0.921184796206,-0.271355626115,0.0750348103986,0.185722052584
7700000000.0,0.0764252342515,0.187830657353,0.919694392447,-0.274599114384,0.919694392447,-0.274599114384,0.0764252342515,0.187830657353
7800000000.0,0.0778298921324,0.189927089627,0.918188417015,-0.277830699479,0.918188417015,-0.277830699479,0.0778298921324,0.189927089627
7900000000.0,0.0792486547842,0.192011246074,0.916666997649,-0.281050279774,0.916666997649,-0.281050279774,0.0792486547842,0.192011246074
8000000000.0,0.0806813920981,0.194083025092,0.915130262926,-0.284257755351,0.915130262926,-0.284257755351,0.0806813920981,0.194083025092
8100000000.0,0.0821279731423,0.196142326814,0.913578342235,-0.287453028012,0.913578342235,-0.287453028012,0.0821279731423,0.196142326814
8200000000.0,0.0835882661921,0.198189053116,0.912011365745,-0.290636001279,0.912011365745,-0.290636001279,0.0835882661921,0.198189053116
8300000000.0,0.085062138759,0.200223107617,0.910429464376,-0.2938065804,0.910429464376,-0.2938065804,0.085062138759,0.200223107617
8400000000.0,0.0865494576197,0.202244395686,0.908832769771,-0.296964672354,0.908832769771,-0.296964672354,0.0865494576197,0.202244395686
8500000000.0,0.0880500888448,0.204252824444,0.907221414267,-0.300110185854,0.907221414267,-0.300110185854,0.0880500888448,0.204252824444
8600000000.0,0.0895638978277,0.206248302765,0.905595530865,-0.303243031349,0.905595530865,-0.303243031349,0.0895638978277,0.206248302765
8700000000.0,0.0910907493132,0.208230741281,0.903955253204,-0.306363121028,0.903955253204,-0.306363121028,0.0910907493132,0.208230741281
8800000000.0,0.0926305074254,0.210200052383,0.902300715531,-0.309470368818,0.902300715531,-0.309470368818,0.0926305074254,0.210200052383
8900000000.0,0.0941830356959,0.21215615022,0.900632052673,-0.312564690392,0.900632052673,-0.312564690392,0.0941830356959,0.21215615022
9000000000.0,0.095748197092,0.214098950704,0.89894940001,-0.315646003166,0.89894940001,-0.315646003166,0.095748197092,0.214098950704
9100000000.0,0.0973258540438,0.216028371508,0.897252893448,-0.318714226299,0.897252893448,-0.318714226299,0.0973258540438,0.216028371508
9200000000.0,0.0989158684724,0.217944332064,0.895542669388,-0.321769280696,0.895542669388,-0.321769280696,0.0989158684724,0.217944332064
9300000000.0,0.100518101817,0.219846753567,0.893818864703,-0.324811089004,0.893818864703,-0.324811089004,0.100518101817,0.219846753567
9400000000.0,0.10213241506,0.221735558972,0.892081616709,-0.327839575617,0.892081616709,-0.327839575617,0.10213241506,0.221735558972
9500000000.0,0.103758668758,0.223610672991,0.890331063138,-0.33085466667,0.890331063138,-0.33085466667,0.103758668758,0.223610672991
9600000000.0,0.105396723065,0.225472022095,0.888567342113,-0.333856290038,0.888567342113,-0.333856290038,0.105396723065,0.225472022095
9700000000.0,0.107046437759,0.227319534509,0.886790592119,-0.336844375336,0.886790592119,-0.336844375336,0.107046437759,0.227319534509
9800000000.0,0.108707672271,0.22915314021,0.885000951979,-0.339818853917,0.885000951979,-0.339818853917,0.108707672271,0.22915314021
9900000000.0,0.110380285708,0.230972770925,0.883198560826,-0.342779658866,0.883198560826,-0.342779658866,0.110380285708,0.230972770925
10000000000.0,0.11206413688,0.232778360127,0.881383558081,-0.345726725001,0.881383558081,-0.345726725001,0.11206413688,0.232778360127
