freq (GHz),S11_real,S11_imag,S21_real,S21_imag,S12_real,S12_imag,S22_real,S22_imag
100000000.0,0.000295574095314,-0.0038233040986,0.999658463107,-0.00473429888356,0.999658463107,-0.00473429888356,0.000295574095314,-0.0038233040986
200000000.0,0.000239250047351,-0.00764615617653,0.999596588753,-0.00946815237645,0.999596588753,-0.00946815237645,0.000239250047351,-0.00764615617653
300000000.0,0.000146179377547,-0.0114681361664,0.999498244421,-0.0142011520976,0.999498244421,-0.0142011520976,0.000146179377547,-0.0114681361664
400000000.0,1.66529331287e-05,-0.0152888169906,0.999363171194,-0.0189328792609,0.999363171194,-0.0189328792609,1.66529331285e-05,-0.0152888169906
500000000.0,-0.000149201095898,-0.0191077680067,0.999191286086,-0.0236629103635,0.999191286086,-0.0236629103635,-0.000149201095898,-0.0191077680067
600000000.0,-0.000351299641529,-0.0229245564455,0.998982564699,-0.0283908191286,0.998982564699,-0.0283908191286,-0.000351299641529,-0.0229245564455
700000000.0,-0.000589574883256,-0.0267387482319,0.998737011479,-0.0331161775414,0.998737011479,-0.0331161775414,-0.000589574883257,-0.0267387482319
800000000.0,-0.000863963340828,-0.0305499085371,0.998454648892,-0.0378385565199,0.998454648892,-0.0378385565199,-0.000863963340828,-0.0305499085371
900000000.0,-0.00117440101568,-0.0343576021938,0.998135512621,-0.0425575264,0.998135512621,-0.0425575264,-0.00117440101568,-0.0343576021938
1000000000.0,-0.00152082092931,-0.0381613940299,0.997779649133,-0.0472726573176,0.997779649133,-0.0472726573176,-0.00152082092931,-0.0381613940299
1100000000.0,-0.00190315175862,-0.0419608491519,0.99738711433,-0.0519835195256,0.99738711433,-0.0519835195256,-0.00190315175862,-0.0419608491519
1200000000.0,-0.00232131702879,-0.0457555331956,0.996957972742,-0.0566896836686,0.996957972742,-0.0566896836686,-0.00232131702879,-0.0457555331956
1300000000.0,-0.00277523461302,-0.0495450125513,0.99649229701,-0.0613907210277,0.99649229701,-0.0613907210277,-0.00277523461302,-0.0495450125513
1400000000.0,-0.00326481641282,-0.0533288545737,0.995990167541,-0.066086203745,0.995990167541,-0.066086203745,-0.00326481641282,-0.0533288545737
1500000000.0,-0.00378996815016,-0.0571066277774,0.995451672263,-0.0707757050307,0.995451672263,-0.0707757050307,-0.00378996815016,-0.0571066277774
1600000000.0,-0.0043505892326,-0.060877902023,0.994876906437,-0.0754587993595,0.994876906437,-0.0754587993595,-0.0043505892326,-0.060877902023
1700000000.0,-0.0049465726677,-0.0646422486946,0.994265972522,-0.0801350626553,0.994265972522,-0.0801350626553,-0.0049465726677,-0.0646422486946
1800000000.0,-0.00557780501228,-0.0683992408706,0.99361898005,-0.0848040724699,0.99361898005,-0.0848040724699,-0.00557780501228,-0.0683992408706
1900000000.0,-0.00624416634706,-0.0721484534893,0.99293604553,-0.0894654081531,0.99293604553,-0.0894654081531,-0.00624416634706,-0.0721484534893
2000000000.0,-0.00694553027053,-0.0758894635082,0.992217292357,-0.0941186510184,0.992217292357,-0.0941186510184,-0.00694553027053,-0.0758894635082
2100000000.0,-0.00768176390758,-0.0796218500608,0.991462850727,-0.098763384503,0.991462850727,-0.098763384503,-0.00768176390758,-0.0796218500608
2200000000.0,-0.00845272793019,-0.0833451946079,0.990672857557,-0.103399194323,0.990672857557,-0.103399194323,-0.00845272793019,-0.0833451946079
2300000000.0,-0.00925827658777,-0.0870590810858,0.989847456414,-0.108025668627,0.989847456414,-0.108025668627,-0.00925827658777,-0.0870590810858
2400000000.0,-0.0100982577458,-0.0907630960511,0.988986797433,-0.11264239814,0.988986797433,-0.11264239814,-0.0100982577458,-0.0907630960511
2500000000.0,-0.0109725129316,-0.0944568288224,0.988091037244,-0.11724897631,0.988091037244,-0.11724897631,-0.0109725129316,-0.0944568288224
2600000000.0,-0.0118808773861,-0.0981398716182,0.987160338893,-0.12184499945,0.987160338893,-0.12184499945,-0.0118808773861,-0.0981398716182
2700000000.0,-0.0128231801213,-0.101811819693,0.986194871768,-0.126430066872,0.986194871768,-0.126430066872,-0.0128231801213,-0.101811819693
2800000000.0,-0.0137992439825,-0.105472271468,0.985194811518,-0.131003781027,0.985194811518,-0.131003781027,-0.0137992439825,-0.105472271468
2900000000.0,-0.0148088857153,-0.109120828664,0.984160339969,-0.135565747627,0.984160339969,-0.135565747627,-0.0148088857153,-0.109120828664
3000000000.0,-0.0158519160367,-0.112757096424,0.983091645045,-0.140115575784,0.983091645045,-0.140115575784,-0.0158519160367,-0.112757096424
3100000000.0,-0.0169281397095,-0.116380683438,0.981988920684,-0.144652878127,0.981988920684,-0.144652878127,-0.0169281397095,-0.116380683438
3200000000.0,-0.0180373556216,-0.119991202067,0.980852366743,-0.149177270928,0.980852366743,-0.149177270928,-0.0180373556216,-0.119991202067
3300000000.0,-0.0191793568672,-0.123588268458,0.97968218892,-0.153688374221,0.97968218892,-0.153688374221,-0.0191793568672,-0.123588268458
3400000000.0,-0.0203539308324,-0.127171502656,0.978478598653,-0.158185811916,0.978478598653,-0.158185811916,-0.0203539308324,-0.127171502656
3500000000.0,-0.021560859283,-0.130740528724,0.977241813032,-0.162669211917,0.977241813032,-0.162669211917,-0.021560859283,-0.130740528724
3600000000.0,-0.0227999184553,-0.134294974846,0.9759720547,-0.167138206226,0.9759720547,-0.167138206226,-0.0227999184553,-0.134294974846
3700000000.0,-0.0240708791505,-0.137834473434,0.974669551758,-0.171592431054,0.974669551758,-0.171592431054,-0.0240708791505,-0.137834473434
3800000000.0,-0.0253735068301,-0.141358661236,0.973334537662,-0.176031526927,0.973334537662,-0.176031526927,-0.0253735068301,-0.141358661236
3900000000.0,-0.0267075617151,-0.144867179428,0.971967251125,-0.180455138781,0.971967251125,-0.180455138781,-0.0267075617151,-0.144867179428
4000000000.0,-0.028072798887,-0.148359673719,0.97056793601,-0.184862916067,0.97056793601,-0.184862916067,-0.028072798887,-0.148359673719
4100000000.0,-0.0294689683905,-0.151835794442,0.969136841225,-0.18925451284,0.969136841225,-0.18925451284,-0.0294689683905,-0.151835794442
4200000000.0,-0.0308958153394,-0.155295196645,0.967674220616,-0.193629587856,0.967674220616,-0.193629587856,-0.0308958153394,-0.155295196645
4300000000.0,-0.0323530800232,-0.15873754018,0.966180332858,-0.197987804656,0.966180332858,-0.197987804656,-0.0323530800232,-0.15873754018
4400000000.0,-0.0338404980168,-0.162162489785,0.964655441345,-0.202328831657,0.964655441345,-0.202328831657,-0.0338404980168,-0.162162489785
4500000000.0,-0.0353578002908,-0.165569715173,0.963099814075,-0.206652342228,0.963099814075,-0.206652342228,-0.0353578002908,-0.165569715173
4600000000.0,-0.036904713324,-0.1689588911,0.961513723538,-0.210958014774,0.961513723538,-0.210958014774,-0.036904713324,-0.1689588911
4700000000.0,-0.0384809592176,-0.172329697452,0.959897446601,-0.215245532812,0.959897446601,-0.215245532812,-0.0384809592176,-0.172329697452
4800000000.0,-0.0400862558105,-0.175681819309,0.958251264392,-0.219514585039,0.958251264392,-0.219514585039,-0.0400862558105,-0.175681819309
4900000000.0,-0.0417203167957,-0.179014947016,0.956575462179,-0.22376486541,0.956575462179,-0.22376486541,-0.0417203167957,-0.179014947016
5000000000.0,-0.0433828518388,-0.182328776252,0.954870329256,-0.227996073194,0.954870329256,-0.227996073194,-0.0433828518388,-0.182328776252
5100000000.0,-0.0450735666963,-0.185623008089,0.953136158819,-0.232207913046,0.953136158819,-0.232207913046,-0.0450735666963,-0.185623008089
5200000000.0,-0.0467921633365,-0.188897349055,0.951373247847,-0.236400095063,0.951373247847,-0.236400095063,-0.0467921633365,-0.188897349055
5300000000.0,-0.0485383400597,-0.192151511185,0.949581896981,-0.24057233484,0.949581896981,-0.24057233484,-0.0485383400597,-0.192151511185
5400000000.0,-0.0503117916204,-0.19538521208,0.9477624104,-0.244724353527,0.9477624104,-0.244724353527,-0.0503117916204,-0.19538521208
5500000000.0,-0.0521122093497,-0.198598174953,0.945915095698,-0.248855877873,0.945915095698,-0.248855877873,-0.0521122093497,-0.198598174953
5600000000.0,-0.0539392812784,-0.201790128678,0.944040263763,-0.252966640281,0.944040263763,-0.252966640281,-0.0539392812784,-0.201790128678
5700000000.0,-0.0557926922609,-0.20496080783,0.942138228649,-0.257056378844,0.942138228649,-0.257056378844,-0.0557926922609,-0.20496080783
5800000000.0,-0.0576721240988,-0.20810995273,0.940209307454,-0.261124837391,0.940209307454,-0.261124837391,-0.0576721240988,-0.20810995273
5900000000.0,-0.0595772556661,-0.211237309476,0.938253820194,-0.26517176552,0.938253820194,-0.26517176552,-0.0595772556661,-0.211237309476
6000000000.0,-0.0615077630331,-0.214342629982,0.93627208968,-0.269196918639,0.93627208968,-0.269196918639,-0.0615077630331,-0.214342629982
6100000000.0,-0.0634633195918,-0.217425672008,0.934264441389,-0.273200057986,0.934264441389,-0.273200057986,-0.0634633195918,-0.217425672008
6200000000.0,-0.0654435961807,-0.220486199184,0.932231203342,-0.277180950669,0.932231203342,-0.277180950669,-0.0654435961807,-0.220486199184
6300000000.0,-0.0674482612099,-0.223523981038,0.930172705977,-0.281139369682,0.930172705977,-0.281139369682,-0.0674482612099,-0.223523981038
6400000000.0,-0.0694769807854,-0.226538793015,0.928089282025,-0.285075093929,0.928089282025,-0.285075093929,-0.0694769807854,-0.226538793015
6500000000.0,-0.0715294188344,-0.229530416498,0.925981266386,-0.288987908244,0.925981266386,-0.288987908244,-0.0715294188344,-0.229530416498
6600000000.0,-0.0736052372293,-0.232498638819,0.923848996,-0.292877603405,0.923848996,-0.292877603405,-0.0736052372293,-0.232498638819
6700000000.0,-0.0757040959119,-0.235443253275,0.921692809727,-0.296743976147,0.921692809727,-0.296743976147,-0.0757040959119,-0.235443253275
6800000000.0,-0.0778256530171,-0.238364059136,0.919513048224,-0.30058682917,0.919513048224,-0.30058682917,-0.0778256530171,-0.238364059136
6900000000.0,-0.0799695649955,-0.24126086165,0.917310053816,-0.304405971149,0.917310053816,-0.304405971149,-0.0799695649955,-0.24126086165
7000000000.0,-0.0821354867366,-0.244133472049,0.91508417038,-0.308201216731,0.91508417038,-0.308201216731,-0.0821354867366,-0.244133472049
7100000000.0,-0.0843230716904,-0.246981707545,0.912835743217,-0.311972386545,0.912835743217,-0.311972386545,-0.0843230716904,-0.246981707545
7200000000.0,-0.0865319719885,-0.249805391332,0.910565118936,-0.315719307191,0.910565118936,-0.315719307191,-0.0865319719885,-0.249805391332
7300000000.0,-0.0887618385644,-0.25260435258,0.908272645331,-0.319441811239,0.908272645331,-0.319441811239,-0.0887618385644,-0.25260435258
7400000000.0,-0.0910123212731,-0.255378426426,0.905958671258,-0.323139737224,0.905958671258,-0.323139737224,-0.0910123212731,-0.255378426426
7500000000.0,-0.0932830690096,-0.258127453962,0.903623546524,-0.326812929627,0.903623546524,-0.326812929627,-0.0932830690096,-0.258127453962
7600000000.0,-0.0955737298264,-0.260851282225,0.901267621763,-0.330461238873,0.901267621763,-0.330461238873,-0.0955737298264,-0.260851282225
7700000000.0,-0.0978839510502,-0.26354976418,0.898891248321,-0.334084521308,0.898891248321,-0.334084521308,-0.0978839510502,-0.26354976418
7800000000.0,-0.100213379397,-0.266222758699,0.896494778141,-0.33768263918,0.896494778141,-0.33768263918,-0.100213379397,-0.266222758699
7900000000.0,-0.102561661086,-0.268870130544,0.894078563651,-0.341255460623,0.894078563651,-0.341255460623,-0.102561661086,-0.268870130544
8000000000.0,-0.104928441954,-0.271491750341,0.891642957646,-0.344802859632,0.891642957646,-0.344802859632,-0.104928441954,-0.271491750341
8100000000.0,-0.107313367564,-0.274087494555,0.889188313179,-0.348324716036,0.889188313179,-0.348324716036,-0.107313367564,-0.274087494555
8200000000.0,-0.10971608332,-0.276657245462,0.886714983453,-0.35182091547,0.886714983453,-0.35182091547,-0.10971608332,-0.276657245462
8300000000.0,-0.112136234571,-0.279200891119,0.884223321706,-0.355291349346,0.884223321706,-0.355291349346,-0.112136234571,-0.279200891119
8400000000.0,-0.114573466722,-0.281718325328,0.881713681109,-0.358735914822,0.881713681109,-0.358735914822,-0.114573466722,-0.281718325328
8500000000.0,-0.117027425338,-0.284209447607,0.879186414659,-0.362154514762,0.879186414659,-0.362154514762,-0.117027425338,-0.284209447607
8600000000.0,-0.119497756249,-0.286674163149,0.876641875071,-0.365547057704,0.876641875071,-0.365547057704,-0.119497756249,-0.286674163149
8700000000.0,-0.121984105656,-0.289112382782,0.874080414678,-0.368913457821,0.874080414678,-0.368913457821,-0.121984105656,-0.289112382782
8800000000.0,-0.124486120224,-0.291524022931,0.871502385331,-0.372253634876,0.871502385331,-0.372253634876,-0.124486120224,-0.291524022931
8900000000.0,-0.127003447191,-0.293909005574,0.868908138296,-0.375567514184,0.868908138296,-0.375567514184,-0.127003447191,-0.293909005574
9000000000.0,-0.129535734459,-0.296267258197,0.866298024157,-0.378855026563,0.866298024157,-0.378855026563,-0.129535734459,-0.296267258197
9100000000.0,-0.132082630695,-0.298598713746,0.863672392723,-0.382116108291,0.863672392723,-0.382116108291,-0.132082630695,-0.298598713746
9200000000.0,-0.134643785422,-0.30090331058,0.861031592928,-0.385350701055,0.861031592928,-0.385350701055,-0.134643785422,-0.30090331058
9300000000.0,-0.137218849112,-0.303180992422,0.858375972742,-0.388558751904,0.858375972742,-0.388558751904,-0.137218849112,-0.303180992422
9400000000.0,-0.13980747328,-0.305431708303,0.855705879081,-0.391740213193,0.855705879081,-0.391740213193,-0.13980747328,-0.305431708303
9500000000.0,-0.142409310567,-0.307655412515,0.853021657715,-0.394895042533,0.853021657715,-0.394895042533,-0.142409310567,-0.307655412515
9600000000.0,-0.145024014834,-0.309852064548,0.850323653182,-0.398023202737,0.850323653182,-0.398023202737,-0.145024014834,-0.309852064548
9700000000.0,-0.147651241242,-0.312021629042,0.847612208703,-0.401124661759,0.847612208703,-0.401124661759,-0.147651241242,-0.312021629042
9800000000.0,-0.150290646338,-0.314164075723,0.8448876661,-0.404199392643,0.8448876661,-0.404199392643,-0.150290646338,-0.314164075723
9900000000.0,-0.152941888134,-0.316279379347,0.842150365711,-0.407247373457,0.842150365711,-0.407247373457,-0.152941888134,-0.316279379347
10000000000.0,-0.155604626191,-0.318367519639,0.839400646313,-0.410268587238,0.839400646313,-0.410268587238,-0.155604626191,-0.318367519639
