freq (GHz),S11_real,S11_imag,S21_real,S21_imag,S12_real,S12_imag,S22_real,S22_imag
100000000.0,0.00345130212152,0.00193606912424,0.996543157226,-0.00415809066485,0.996543157226,-0.00415809066485,0.00345130212152,0.00193606912424
200000000.0,0.00349745810049,0.00387172014872,0.996487517135,-0.00831580167785,0.996487517135,-0.00831580167785,0.00349745810049,0.00387172014872
300000000.0,0.00355372365906,0.00580691896407,0.996416823339,-0.0124731224603,0.996416823339,-0.0124731224603,0.00355372365906,0.00580691896407
400000000.0,0.00362307517378,0.00774155797318,0.996328098594,-0.0166299630114,0.996328098594,-0.0166299630114,0.00362307517378,0.00774155797318
500000000.0,0.00370665465174,0.00967551257295,0.996220199841,-0.0207862132857,0.996220199841,-0.0207862132857,0.00370665465174,0.00967551257295
600000000.0,0.00380504027723,0.0116086507304,0.996092547675,-0.0249417537931,0.996092547675,-0.0249417537931,0.00380504027723,0.0116086507304
700000000.0,0.00391856930356,0.0135408364361,0.995944803466,-0.0290964595773,0.995944803466,-0.0290964595773,0.00391856930356,0.0135408364361
800000000.0,0.00404745586129,0.0154719313143,0.99577675156,-0.0332502021433,0.99577675156,-0.0332502021433,0.00404745586129,0.0154719313143
900000000.0,0.00419184339518,0.0174017954951,0.995588246847,-0.0374028505389,0.995588246847,-0.0374028505389,0.00419184339518,0.0174017954951
1000000000.0,0.00435183123438,0.0193302881367,0.995379188203,-0.0415542720258,0.995379188203,-0.0415542720258,0.00435183123438,0.0193302881367
1100000000.0,0.0045274893576,0.0212572677618,0.995149503724,-0.045704332527,0.995149503724,-0.045704332527,0.0045274893576,0.0212572677618
1200000000.0,0.00471886718868,0.0231825924884,0.994899141943,-0.0498528969416,0.994899141943,-0.0498528969416,0.00471886718868,0.0231825924884
1300000000.0,0.00492599912901,0.0251061201946,0.994628066293,-0.053999829378,0.994628066293,-0.053999829378,0.00492599912901,0.0251061201946
1400000000.0,0.00514890819347,0.0270277086422,0.994336251485,-0.0581449933313,0.994336251485,-0.0581449933313,0.00514890819347,0.0270277086422
1500000000.0,0.00538760848814,0.0289472155717,0.994023681024,-0.0622882518239,0.994023681024,-0.0622882518239,0.00538760848814,0.0289472155717
1600000000.0,0.00564210695091,0.0308644987787,0.993690345482,-0.0664294675194,0.993690345482,-0.0664294675194,0.00564210695091,0.0308644987787
1700000000.0,0.00591240460641,0.0327794161758,0.993336241238,-0.0705685028169,0.993336241238,-0.0705685028169,0.00591240460641,0.0327794161758
1800000000.0,0.00619849749164,0.0346918258448,0.992961369559,-0.074705219931,0.992961369559,-0.074705219931,0.00619849749164,0.0346918258448
1900000000.0,0.0065003773521,0.036601586082,0.992565735905,-0.0788394809607,0.992565735905,-0.0788394809607,0.0065003773521,0.036601586082
2000000000.0,0.00681803217489,0.0385085554365,0.992149349401,-0.0829711479497,0.992149349401,-0.0829711479497,0.00681803217489,0.0385085554365
2100000000.0,0.00715144660319,0.0404125927458,0.991712222421,-0.0871000829397,0.991712222421,-0.0871000829397,0.00715144660319,0.0404125927458
2200000000.0,0.00750060226337,0.0423135571665,0.991254370266,-0.0912261480189,0.991254370266,-0.0912261480189,0.00750060226337,0.0423135571665
2300000000.0,0.00786547802646,0.0442113082033,0.990775810904,-0.0953492053651,0.990775810904,-0.0953492053651,0.00786547802646,0.0442113082033
2400000000.0,0.00824605021972,0.0461057057356,0.99027656476,-0.0994691172858,0.99027656476,-0.0994691172858,0.00824605021972,0.0461057057356
2500000000.0,0.0086422927998,0.0479966100418,0.989756654543,-0.103585746255,0.989756654543,-0.103585746255,0.0086422927998,0.0479966100418
2600000000.0,0.009054177496,0.0498838818229,0.989216105108,-0.107698954949,0.989216105108,-0.107698954949,0.009054177496,0.0498838818229
2700000000.0,0.00948167392991,0.0517673822244,0.988654943334,-0.111808606274,0.988654943334,-0.111808606274,0.00948167392991,0.0517673822244
2800000000.0,0.00992474971649,0.0536469728576,0.98807319803,-0.115914563404,0.98807319803,-0.115914563404,0.00992474971649,0.0536469728576
2900000000.0,0.01038337055,0.0555225158192,0.987470899842,-0.120016689802,0.987470899842,-0.120016689802,0.01038337055,0.0555225158192
3000000000.0,0.0108575002781,0.0573938737113,0.986848081189,-0.124114849251,0.986848081189,-0.124114849251,0.0108575002781,0.0573938737113
3100000000.0,0.0113471009657,0.0592609096595,0.986204776194,-0.128208905881,0.986204776194,-0.128208905881,0.0113471009657,0.0592609096595
3200000000.0,0.0118521329513,0.0611234873319,0.985541020635,-0.13229872419,0.985541020635,-0.13229872419,0.0118521329513,0.0611234873319
3300000000.0,0.0123725548963,0.0629814709559,0.984856851891,-0.136384169073,0.984856851891,-0.136384169073,0.0123725548963,0.0629814709559
3400000000.0,0.0129083238292,0.064834725336,0.984152308901,-0.140465105841,0.984152308901,-0.140465105841,0.0129083238292,0.064834725336
3500000000.0,0.0134593951846,0.0666831158705,0.983427432128,-0.144541400245,0.983427432128,-0.144541400245,0.0134593951846,0.0666831158705
3600000000.0,0.0140257228394,0.0685265085677,0.982682263521,-0.148612918498,0.982682263521,-0.148612918498,0.0140257228394,0.0685265085677
3700000000.0,0.0146072591448,0.0703647700621,0.981916846486,-0.152679527294,0.981916846486,-0.152679527294,0.0146072591448,0.0703647700621
3800000000.0,0.0152039549563,0.0721977676302,0.981131225856,-0.15674109383,0.981131225856,-0.15674109383,0.0152039549563,0.0721977676302
3900000000.0,0.0158157596612,0.0740253692058,0.980325447864,-0.160797485827,0.980325447864,-0.160797485827,0.0158157596612,0.0740253692058
4000000000.0,0.016442621204,0.0758474433956,0.979499560122,-0.164848571544,0.979499560122,-0.164848571544,0.016442621204,0.0758474433956
4100000000.0,0.0170844861107,0.0776638594932,0.97865361159,-0.168894219803,0.97865361159,-0.168894219803,0.0170844861107,0.0776638594932
4200000000.0,0.017741299511,0.0794744874947,0.977787652562,-0.172934300004,0.977787652562,-0.172934300004,0.017741299511,0.0794744874947
4300000000.0,0.01841300516,0.0812791981123,0.976901734641,-0.176968682141,0.976901734641,-0.176968682141,0.01841300516,0.0812791981123
4400000000.0,0.0190995454585,0.0830778627892,0.975995910723,-0.180997236823,0.975995910723,-0.180997236823,0.0190995454585,0.0830778627892
4500000000.0,0.0198008614725,0.0848703537125,0.975070234973,-0.185019835289,0.975070234973,-0.185019835289,0.0198008614725,0.0848703537125
4600000000.0,0.0205168929519,0.0866565438278,0.974124762812,-0.189036349425,0.974124762812,-0.189036349425,0.0205168929519,0.0866565438278
4700000000.0,0.021247578349,0.088436306852,0.973159550895,-0.19304665178,0.973159550895,-0.19304665178,0.021247578349,0.088436306852
4800000000.0,0.0219928548358,0.0902095172868,0.972174657097,-0.197050615581,0.972174657097,-0.197050615581,0.0219928548358,0.0902095172868
4900000000.0,0.0227526583214,0.0919760504317,0.971170140496,-0.20104811475,0.971170140496,-0.20104811475,0.0227526583214,0.0919760504317
5000000000.0,0.0235269234686,0.0937357823966,0.970146061357,-0.205039023917,0.970146061357,-0.205039023917,0.0235269234686,0.0937357823966
5100000000.0,0.0243155837105,0.0954885901142,0.969102481113,-0.209023218439,0.969102481113,-0.209023218439,0.0243155837105,0.0954885901142
5200000000.0,0.0251185712667,0.0972343513528,0.968039462354,-0.213000574409,0.968039462354,-0.213000574409,0.0251185712667,0.0972343513528
5300000000.0,0.0259358171591,0.0989729447281,0.966957068809,-0.216970968673,0.966957068809,-0.216970968673,0.0259358171591,0.0989729447281
5400000000.0,0.0267672512277,0.100704249715,0.96585536533,-0.220934278844,0.96585536533,-0.220934278844,0.0267672512277,0.100704249715
5500000000.0,0.0276128021463,0.102428146659,0.964734417879,-0.224890383316,0.964734417879,-0.224890383316,0.0276128021463,0.102428146659
5600000000.0,0.0284723974376,0.10414451679,0.963594293512,-0.228839161275,0.963594293512,-0.228839161275,0.0284723974376,0.10414451679
5700000000.0,0.0293459634887,0.105853242228,0.962435060362,-0.232780492713,0.962435060362,-0.232780492713,0.0293459634887,0.105853242228
5800000000.0,0.0302334255663,0.107554206002,0.961256787631,-0.236714258443,0.961256787631,-0.236714258443,0.0302334255663,0.107554206002
5900000000.0,0.0311347078318,0.109247292053,0.960059545565,-0.240640340105,0.960059545565,-0.240640340105,0.0311347078318,0.109247292053
6000000000.0,0.0320497333565,0.110932385251,0.95884340545,-0.244558620188,0.95884340545,-0.244558620188,0.0320497333565,0.110932385251
6100000000.0,0.0329784241363,0.112609371399,0.957608439589,-0.248468982032,0.957608439589,-0.248468982032,0.0329784241363,0.112609371399
6200000000.0,0.0339207011068,0.114278137251,0.956354721292,-0.252371309844,0.956354721292,-0.252371309844,0.0339207011068,0.114278137251
6300000000.0,0.0348764841585,0.115938570515,0.95508232486,-0.256265488711,0.95508232486,-0.256265488711,0.0348764841585,0.115938570515
6400000000.0,0.0358456921513,0.117590559865,0.953791325571,-0.260151404607,0.953791325571,-0.260151404607,0.0358456921513,0.117590559865
6500000000.0,0.0368282429297,0.119233994953,0.952481799663,-0.264028944405,0.952481799663,-0.264028944405,0.0368282429297,0.119233994953
6600000000.0,0.0378240533377,0.120868766415,0.951153824323,-0.267897995891,0.951153824323,-0.267897995891,0.0378240533377,0.120868766415
6700000000.0,0.0388330392334,0.122494765882,0.94980747767,-0.271758447768,0.94980747767,-0.271758447768,0.0388330392334,0.122494765882
6800000000.0,0.0398551155044,0.124111885987,0.948442838743,-0.275610189671,0.948442838743,-0.275610189671,0.0398551155044,0.124111885987
6900000000.0,0.0408901960822,0.125720020375,0.947059987481,-0.279453112174,0.947059987481,-0.279453112174,0.0408901960822,0.125720020375
7000000000.0,0.0419381939575,0.127319063712,0.945659004713,-0.283287106799,0.945659004713,-0.283287106799,0.0419381939575,0.127319063712
7100000000.0,0.0429990211948,0.128908911694,0.944239972145,-0.287112066028,0.944239972145,-0.287112066028,0.0429990211948,0.128908911694
7200000000.0,0.0440725889477,0.130489461049,0.942802972337,-0.290927883309,0.942802972337,-0.290927883309,0.0440725889477,0.130489461049
7300000000.0,0.0451588074737,0.132060609553,0.941348088699,-0.294734453067,0.941348088699,-0.294734453067,0.0451588074737,0.132060609553
7400000000.0,0.0462575861488,0.133622256034,0.939875405467,-0.298531670709,0.939875405467,-0.298531670709,0.0462575861488,0.133622256034
7500000000.0,0.0473688334831,0.135174300375,0.938385007694,-0.302319432636,0.938385007694,-0.302319432636,0.0473688334831,0.135174300375
7600000000.0,0.0484924571356,0.13671664353,0.936876981233,-0.306097636247,0.936876981233,-0.306097636247,0.0484924571356,0.13671664353
7700000000.0,0.0496283639287,0.138249187523,0.935351412723,-0.309866179951,0.935351412723,-0.309866179951,0.0496283639287,0.138249187523
7800000000.0,0.050776459864,0.139771835458,0.933808389572,-0.313624963169,0.933808389572,-0.313624963169,0.050776459864,0.139771835458
7900000000.0,0.0519366501368,0.141284491527,0.932247999945,-0.317373886346,0.932247999945,-0.317373886346,0.0519366501368,0.141284491527
8000000000.0,0.0531088391512,0.142787061013,0.930670332747,-0.321112850955,0.930670332747,-0.321112850955,0.0531088391512,0.142787061013
8100000000.0,0.0542929305355,0.144279450296,0.929075477612,-0.324841759505,0.929075477612,-0.324841759505,0.0542929305355,0.144279450296
8200000000.0,0.0554888271567,0.145761566864,0.927463524882,-0.328560515546,0.927463524882,-0.328560515546,0.0554888271567,0.145761566864
8300000000.0,0.056696431136,0.14723331931,0.925834565596,-0.332269023677,0.925834565596,-0.332269023677,0.056696431136,0.14723331931
8400000000.0,0.0579156438636,0.148694617346,0.924188691475,-0.335967189548,0.924188691475,-0.335967189548,0.0579156438636,0.148694617346
8500000000.0,0.0591463660141,0.150145371801,0.922525994905,-0.339654919872,0.922525994905,-0.339654919872,0.0591463660141,0.150145371801
8600000000.0,0.060388497561,0.151585494631,0.920846568926,-0.343332122423,0.920846568926,-0.343332122423,0.060388497561,0.151585494631
8700000000.0,0.0616419377922,0.153014898922,0.919150507211,-0.346998706048,0.919150507211,-0.346998706048,0.0616419377922,0.153014898922
8800000000.0,0.0629065853251,0.154433498893,0.917437904057,-0.350654580666,0.917437904057,-0.350654580666,0.0629065853251,0.154433498893
8900000000.0,0.0641823381214,0.155841209902,0.915708854368,-0.354299657278,0.915708854368,-0.354299657278,0.0641823381214,0.155841209902
9000000000.0,0.0654690935019,0.157237948448,0.913963453638,-0.357933847965,0.913963453638,-0.357933847965,0.0654690935019,0.157237948448
9100000000.0,0.0667667481622,0.158623632179,0.912201797938,-0.361557065901,0.912201797938,-0.361557065901,0.0667667481622,0.158623632179
9200000000.0,0.0680751981873,0.15999817989,0.910423983903,-0.365169225346,0.910423983903,-0.365169225346,0.0680751981873,0.15999817989
9300000000.0,0.0693943390663,0.161361511532,0.908630108711,-0.368770241662,0.908630108711,-0.368770241662,0.0693943390663,0.161361511532
9400000000.0,0.0707240657079,0.16271354821,0.906820270075,-0.372360031304,0.906820270075,-0.372360031304,0.0707240657079,0.16271354821
9500000000.0,0.0720642724552,0.16405421219,0.904994566225,-0.375938511834,0.904994566225,-0.375938511834,0.0720642724552,0.16405421219
9600000000.0,0.0734148531002,0.165383426899,0.903153095893,-0.379505601917,0.903153095893,-0.379505601917,0.0734148531002,0.165383426899
9700000000.0,0.0747757008994,0.166701116929,0.901295958297,-0.383061221327,0.901295958297,-0.383061221327,0.0747757008994,0.166701116929
9800000000.0,0.0761467085879,0.168007208039,0.89942325313,-0.386605290948,0.89942325313,-0.386605290948,0.0761467085879,0.168007208039
9900000000.0,0.0775277683947,0.169301627157,0.897535080542,-0.390137732779,0.897535080542,-0.390137732779,0.0775277683947,0.169301627157
10000000000.0,0.0789187720575,0.170584302384,0.895631541125,-0.393658469932,0.895631541125,-0.393658469932,0.0789187720575,0.170584302384
