freq (GHz),S11_real,S11_imag,S21_real,S21_imag,S12_real,S12_imag,S22_real,S22_imag
100000000.0,0.00700682008431,0.00194497352245,0.99299028175,-0.00316967099179,0.99299028175,-0.00316967099179,0.00700682008431,0.00194497352245
200000000.0,0.00707111670009,0.00388938839046,0.992922583426,-0.00633880251136,0.992922583426,-0.00633880251136,0.00707111670009,0.00388938839046
300000000.0,0.00713550116729,0.00583334685658,0.992853293522,-0.00950750859631,0.992853293522,-0.00950750859631,0.00713550116729,0.00583334685658
400000000.0,0.00720602017957,0.00777682541296,0.992776365118,-0.0126757750329,0.992776365118,-0.0126757750329,0.00720602017957,0.00777682541296
500000000.0,0.00728500162002,0.00971977121467,0.992689470069,-0.0158435570038,0.992689470069,-0.0158435570038,0.00728500162002,0.00971977121467
600000000.0,0.0073736310703,0.0116621184309,0.992591422493,-0.0190107958708,0.992591422493,-0.0190107958708,0.0073736310703,0.0116621184309
700000000.0,0.00747260691646,0.013603794137,0.992481523674,-0.0221774252875,0.992481523674,-0.0221774252875,0.00747260691646,0.013603794137
800000000.0,0.00758237947911,0.0155447210576,0.992359322927,-0.0253433740749,0.992359322927,-0.0253433740749,0.00758237947911,0.0155447210576
900000000.0,0.00770325750014,0.0174848190453,0.992224511113,-0.0285085677878,0.992224511113,-0.0285085677878,0.00770325750014,0.0174848190453
1000000000.0,0.00783546212463,0.0194240059612,0.992076866666,-0.0316729296571,0.992076866666,-0.0316729296571,0.00783546212463,0.0194240059612
1100000000.0,0.00797915691175,0.021362198237,0.991916225571,-0.0348363811983,0.991916225571,-0.0348363811983,0.00797915691175,0.021362198237
1200000000.0,0.00813446571909,0.0232993112551,0.991742463492,-0.0379988426257,0.991742463492,-0.0379988426257,0.00813446571909,0.0232993112551
1300000000.0,0.00830148395563,0.0252352596156,0.991555484515,-0.0411602331481,0.991555484515,-0.0411602331481,0.00830148395563,0.0252352596156
1400000000.0,0.00848028597916,0.027169957332,0.991355213749,-0.0443204711864,0.991355213749,-0.0443204711864,0.00848028597916,0.027169957332
1500000000.0,0.00867093013767,0.0291033179785,0.99114159229,-0.0474794745396,0.99114159229,-0.0474794745396,0.00867093013767,0.0291033179785
1600000000.0,0.00887346231068,0.0310352548032,0.990914573679,-0.0506371605135,0.990914573679,-0.0506371605135,0.00887346231068,0.0310352548032
1700000000.0,0.00908791846193,0.0329656808188,0.990674121349,-0.0537934460241,0.990674121349,-0.0537934460241,0.00908791846193,0.0329656808188
1800000000.0,0.00931432652079,0.0348945088741,0.990420206744,-0.0569482476812,0.990420206744,-0.0569482476812,0.00931432652079,0.0348945088741
1900000000.0,0.00955270779606,0.0368216517145,0.990152807907,-0.0601014818578,0.990152807907,-0.0601014818578,0.00955270779606,0.0368216517145
2000000000.0,0.00980307805682,0.0387470220311,0.989871908401,-0.0632530647485,0.989871908401,-0.0632530647485,0.00980307805682,0.0387470220311
2100000000.0,0.0100654483714,0.0406705325033,0.989577496465,-0.066402912419,0.989577496465,-0.066402912419,0.0100654483714,0.0406705325033
2200000000.0,0.0103398257673,0.0425920958347,0.989269564363,-0.0695509408494,0.989269564363,-0.0695509408494,0.0103398257673,0.0425920958347
2300000000.0,0.0106262137574,0.0445116247847,0.988948107849,-0.0726970659714,0.988948107849,-0.0726970659714,0.0106262137574,0.0445116247847
2400000000.0,0.0109246127629,0.0464290321967,0.988613125752,-0.0758412037018,0.988613125752,-0.0758412037018,0.0109246127629,0.0464290321967
2500000000.0,0.0112350204588,0.0483442310222,0.988264619627,-0.0789832699719,0.988264619627,-0.0789832699719,0.0112350204588,0.0483442310222
2600000000.0,0.0115574320563,0.0502571343432,0.987902593476,-0.0821231807542,0.987902593476,-0.0821231807542,0.0115574320563,0.0502571343432
2700000000.0,0.011891840538,0.0521676553927,0.987527053508,-0.0852608520867,0.987527053508,-0.0852608520867,0.011891840538,0.0521676553927
2800000000.0,0.0122382368539,0.0540757075727,0.987138007948,-0.0883962000952,0.987138007948,-0.0883962000952,0.0122382368539,0.0540757075727
2900000000.0,0.0125966100862,0.0559812044713,0.986735466872,-0.0915291410132,0.986735466872,-0.0915291410132,0.0125966100862,0.0559812044713
3000000000.0,0.0129669475892,0.0578840598784,0.986319442066,-0.0946595912012,0.986319442066,-0.0946595912012,0.0129669475892,0.0578840598784
3100000000.0,0.0133492351092,0.0597841878005,0.985889946907,-0.0977874671643,0.985889946907,-0.0977874671643,0.0133492351092,0.0597841878005
3200000000.0,0.0137434568867,0.0616815024743,0.98544699626,-0.100912685568,0.98544699626,-0.100912685568,0.0137434568867,0.0616815024743
3300000000.0,0.0141495957451,0.0635759183799,0.984990606392,-0.104035163256,0.984990606392,-0.104035163256,0.0141495957451,0.0635759183799
3400000000.0,0.0145676331682,0.0654673502528,0.984520794893,-0.107154817261,0.984520794893,-0.107154817261,0.0145676331682,0.0654673502528
3500000000.0,0.0149975493671,0.0673557130962,0.984037580611,-0.110271564823,0.984037580611,-0.110271564823,0.0149975493671,0.0673557130962
3600000000.0,0.0154393233401,0.0692409221914,0.983540983589,-0.113385323398,0.983540983589,-0.113385323398,0.0154393233401,0.0692409221914
3700000000.0,0.0158929329245,0.0711228931091,0.983031025017,-0.116496010676,0.983031025017,-0.116496010676,0.0158929329245,0.0711228931091
3800000000.0,0.0163583548437,0.0730015417196,0.982507727183,-0.119603544588,0.982507727183,-0.119603544588,0.0163583548437,0.0730015417196
3900000000.0,0.0168355647487,0.0748767842025,0.981971113435,-0.12270784332,0.981971113435,-0.12270784332,0.0168355647487,0.0748767842025
4000000000.0,0.0173245372553,0.0767485370567,0.981421208138,-0.125808825325,0.981421208138,-0.125808825325,0.0173245372553,0.0767485370567
4100000000.0,0.0178252459777,0.0786167171091,0.980858036646,-0.128906409333,0.980858036646,-0.128906409333,0.0178252459777,0.0786167171091
4200000000.0,0.0183376635595,0.0804812415241,0.980281625269,-0.13200051436,0.980281625269,-0.13200051436,0.0183376635595,0.0804812415241
4300000000.0,0.0188617617011,0.0823420278122,0.979692001248,-0.135091059722,0.979692001248,-0.135091059722,0.0188617617011,0.0823420278122
4400000000.0,0.0193975111853,0.0841989938382,0.979089192725,-0.13817796504,0.979089192725,-0.13817796504,0.0193975111853,0.0841989938382
4500000000.0,0.0199448819006,0.0860520578299,0.978473228725,-0.141261150252,0.978473228725,-0.141261150252,0.0199448819006,0.0860520578299
4600000000.0,0.0205038428629,0.087901138386,0.977844139129,-0.144340535624,0.977844139129,-0.144340535624,0.0205038428629,0.087901138386
4700000000.0,0.0210743622354,0.0897461544837,0.977201954662,-0.147416041756,0.977201954662,-0.147416041756,0.0210743622354,0.0897461544837
4800000000.0,0.0216564073476,0.0915870254869,0.976546706866,-0.15048758959,0.976546706866,-0.15048758959,0.0216564073476,0.0915870254869
4900000000.0,0.0222499447121,0.0934236711533,0.975878428089,-0.153555100424,0.975878428089,-0.153555100424,0.0222499447121,0.0934236711533
5000000000.0,0.0228549400415,0.0952560116417,0.975197151465,-0.156618495914,0.975197151465,-0.156618495914,0.0228549400415,0.0952560116417
5100000000.0,0.0234713582635,0.0970839675197,0.974502910902,-0.159677698086,0.974502910902,-0.159677698086,0.0234713582635,0.0970839675197
5200000000.0,0.0240991635359,0.0989074597699,0.973795741063,-0.162732629342,0.973795741063,-0.162732629342,0.0240991635359,0.0989074597699
5300000000.0,0.0247383192598,0.100726409798,0.973075677357,-0.165783212471,0.973075677357,-0.165783212471,0.0247383192598,0.100726409798
5400000000.0,0.0253887880936,0.102540739438,0.972342755925,-0.16882937065,0.972342755925,-0.16882937065,0.0253887880936,0.102540739438
5500000000.0,0.0260505319649,0.104350370959,0.971597013624,-0.171871027461,0.971597013624,-0.171871027461,0.0260505319649,0.104350370959
5600000000.0,0.0267235120832,0.106155227075,0.97083848802,-0.174908106887,0.97083848802,-0.174908106887,0.0267235120832,0.106155227075
5700000000.0,0.027407688951,0.107955230946,0.970067217372,-0.177940533329,0.970067217372,-0.177940533329,0.027407688951,0.107955230946
5800000000.0,0.0281030223755,0.109750306186,0.969283240624,-0.180968231608,0.969283240624,-0.180968231608,0.0281030223755,0.109750306186
5900000000.0,0.0288094714793,0.111540376874,0.968486597393,-0.183991126971,0.968486597393,-0.183991126971,0.0288094714793,0.111540376874
6000000000.0,0.0295269947109,0.113325367552,0.967677327959,-0.187009145102,0.967677327959,-0.187009145102,0.0295269947109,0.113325367552
6100000000.0,0.0302555498551,0.115105203235,0.966855473255,-0.190022212123,0.966855473255,-0.190022212123,0.0302555498551,0.115105203235
6200000000.0,0.0309950940426,0.116879809417,0.966021074856,-0.193030254605,0.966021074856,-0.193030254605,0.0309950940426,0.116879809417
6300000000.0,0.0317455837606,0.118649112079,0.96517417497,-0.196033199571,0.96517417497,-0.196033199571,0.0317455837606,0.118649112079
6400000000.0,0.0325069748613,0.120413037686,0.96431481643,-0.199030974506,0.96431481643,-0.199030974506,0.0325069748613,0.120413037686
6500000000.0,0.033279222572,0.122171513201,0.963443042681,-0.202023507357,0.963443042681,-0.202023507357,0.033279222572,0.122171513201
6600000000.0,0.0340622815042,0.123924466089,0.962558897777,-0.205010726544,0.962558897777,-0.205010726544,0.0340622815042,0.123924466089
6700000000.0,0.0348561056624,0.125671824317,0.961662426365,-0.207992560965,0.961662426365,-0.207992560965,0.0348561056624,0.125671824317
6800000000.0,0.035660648453,0.127413516364,0.960753673682,-0.210968939997,0.960753673682,-0.210968939997,0.035660648453,0.127413516364
6900000000.0,0.0364758626936,0.129149471224,0.959832685542,-0.213939793509,0.959832685542,-0.213939793509,0.0364758626936,0.129149471224
7000000000.0,0.0373017006208,0.130879618414,0.958899508331,-0.216905051862,0.958899508331,-0.216905051862,0.0373017006208,0.130879618414
7100000000.0,0.0381381138997,0.132603887971,0.957954188995,-0.219864645912,0.957954188995,-0.219864645912,0.0381381138997,0.132603887971
7200000000.0,0.0389850536317,0.134322210466,0.956996775036,-0.222818507025,0.956996775036,-0.222818507025,0.0389850536317,0.134322210466
7300000000.0,0.0398424703633,0.136034517003,0.9560273145,-0.225766567069,0.9560273145,-0.225766567069,0.0398424703633,0.136034517003
7400000000.0,0.0407103140942,0.137740739223,0.955045855969,-0.228708758431,0.955045855969,-0.228708758431,0.0407103140942,0.137740739223
7500000000.0,0.0415885342857,0.139440809313,0.954052448555,-0.231645014012,0.954052448555,-0.231645014012,0.0415885342857,0.139440809313
7600000000.0,0.0424770798688,0.141134660006,0.95304714189,-0.234575267237,0.95304714189,-0.234575267237,0.0424770798688,0.141134660006
7700000000.0,0.0433758992524,0.142822224585,0.95202998612,-0.237499452059,0.95202998612,-0.237499452059,0.0433758992524,0.142822224585
7800000000.0,0.0442849403317,0.144503436889,0.951001031893,-0.240417502962,0.951001031893,-0.240417502962,0.0442849403317,0.144503436889
7900000000.0,0.0452041504955,0.146178231319,0.949960330357,-0.243329354967,0.949960330357,-0.243329354967,0.0452041504955,0.146178231319
8000000000.0,0.0461334766349,0.147846542835,0.948907933144,-0.246234943632,0.948907933144,-0.246234943632,0.0461334766349,0.147846542835
8100000000.0,0.0470728651513,0.149508306967,0.947843892372,-0.249134205063,0.947843892372,-0.249134205063,0.0470728651513,0.149508306967
8200000000.0,0.0480222619637,0.151163459813,0.946768260629,-0.252027075912,0.946768260629,-0.252027075912,0.0480222619637,0.151163459813
8300000000.0,0.0489816125173,0.152811938048,0.945681090967,-0.254913493382,0.945681090967,-0.254913493382,0.0489816125173,0.152811938048
8400000000.0,0.049950861791,0.154453678921,0.944582436898,-0.257793395233,0.944582436898,-0.257793395233,0.049950861791,0.154453678921
8500000000.0,0.0509299543053,0.156088620265,0.943472352383,-0.260666719785,0.943472352383,-0.260666719785,0.0509299543053,0.156088620265
8600000000.0,0.0519188341302,0.157716700494,0.942350891823,-0.263533405919,0.942350891823,-0.263533405919,0.0519188341302,0.157716700494
8700000000.0,0.0529174448932,0.15933785861,0.941218110053,-0.266393393083,0.941218110053,-0.266393393083,0.0529174448932,0.15933785861
8800000000.0,0.0539257297866,0.160952034207,0.940074062337,-0.269246621294,0.940074062337,-0.269246621294,0.0539257297866,0.160952034207
8900000000.0,0.0549436315757,0.162559167469,0.938918804355,-0.272093031142,0.938918804355,-0.272093031142,0.0549436315757,0.162559167469
9000000000.0,0.0559710926063,0.164159199178,0.937752392199,-0.274932563792,0.937752392199,-0.274932563792,0.0559710926063,0.164159199178
9100000000.0,0.0570080548126,0.165752070712,0.936574882364,-0.277765160989,0.936574882364,-0.277765160989,0.0570080548126,0.165752070712
9200000000.0,0.0580544597247,0.167337724054,0.93538633174,-0.280590765059,0.93538633174,-0.280590765059,0.0580544597247,0.167337724054
9300000000.0,0.0591102484765,0.168916101786,0.934186797606,-0.283409318911,0.934186797606,-0.283409318911,0.0591102484765,0.168916101786
9400000000.0,0.0601753618133,0.170487147099,0.932976337621,-0.286220766042,0.932976337621,-0.286220766042,0.0601753618133,0.170487147099
9500000000.0,0.0612497400991,0.172050803793,0.931755009816,-0.289025050539,0.931755009816,-0.289025050539,0.0612497400991,0.172050803793
9600000000.0,0.062333323325,0.173607016276,0.930522872588,-0.29182211708,0.930522872588,-0.29182211708,0.062333323325,0.173607016276
9700000000.0,0.0634260511161,0.175155729571,0.929279984692,-0.294611910938,0.929279984692,-0.294611910938,0.0634260511161,0.175155729571
9800000000.0,0.0645278627393,0.176696889315,0.928026405232,-0.297394377982,0.928026405232,-0.297394377982,0.0645278627393,0.176696889315
9900000000.0,0.0656386971112,0.17823044176,0.926762193656,-0.300169464681,0.926762193656,-0.300169464681,0.0656386971112,0.17823044176
10000000000.0,0.0667584928052,0.17975633378,0.925487409745,-0.302937118103,0.925487409745,-0.302937118103,0.0667584928052,0.17975633378
