freq (GHz),S11_real,S11_imag,S21_real,S21_imag,S12_real,S12_imag,S22_real,S22_imag
100000000.0,0.0015130561818,0.000357192881957,0.998479332937,-0.00316740927766,0.998479332937,-0.00316740927766,0.0015130561818,0.000357192881957
200000000.0,0.00152526178625,0.000714294677904,0.998452614677,-0.00633475832369,0.998452614677,-0.00633475832369,0.00152526178625,0.000714294677904
300000000.0,0.00153708148741,0.00107131285524,0.998418379743,-0.00950206843409,0.998418379743,-0.00950206843409,0.00153708148741,0.00107131285524
400000000.0,0.00154982549829,0.00142823801061,0.998375316886,-0.012669336205,0.998375316886,-0.012669336205,0.00154982549829,0.00142823801061
500000000.0,0.00156399755617,0.00178505734825,0.998322921146,-0.0158365508485,0.998322921146,-0.0158365508485,0.00156399755617,0.00178505734825
600000000.0,0.00157985395163,0.00214175680093,0.998260934851,-0.0190036976666,0.998260934851,-0.0190036976666,0.00157985395163,0.00214175680093
700000000.0,0.00159754557093,0.00249832174478,0.998189205595,-0.0221707594588,0.998189205595,-0.0221707594588,0.00159754557093,0.00249832174478
800000000.0,0.00161716971366,0.0028547373083,0.998107634439,-0.025337717248,0.998107634439,-0.025337717248,0.00161716971366,0.0028547373083
900000000.0,0.00163879315473,0.0032109885261,0.998016152858,-0.0285045507095,0.998016152858,-0.0285045507095,0.00163879315473,0.0032109885261
1000000000.0,0.00166246382937,0.00356706042196,0.997914711074,-0.0316712384489,0.997914711074,-0.0316712384489,0.00166246382937,0.00356706042196
1100000000.0,0.00168821732633,0.0039229380564,0.997803271567,-0.0348377581937,0.997803271567,-0.0348377581937,0.00168821732633,0.0039229380564
1200000000.0,0.00171608075578,0.00427860655496,0.997681805218,-0.0380040869324,0.997681805218,-0.0380040869324,0.00171608075578,0.00427860655496
1300000000.0,0.00174607518216,0.00463405112511,0.997550288887,-0.041170201019,0.997550288887,-0.041170201019,0.00174607518216,0.00463405112511
1400000000.0,0.00177821722295,0.0049892570665,0.997408703814,-0.0443360762539,0.997408703814,-0.0443360762539,0.00177821722295,0.0049892570665
1500000000.0,0.00181252013806,0.0053442097769,0.997257034542,-0.047501687948,0.997257034542,-0.047501687948,0.00181252013806,0.0053442097769
1600000000.0,0.00184899459485,0.00569889475544,0.997095268155,-0.0506670109753,0.997095268155,-0.0506670109753,0.00184899459485,0.00569889475544
1700000000.0,0.00188764921956,0.00605329760414,0.996923393732,-0.0538320198156,0.996923393732,-0.0538320198156,0.00188764921956,0.00605329760414
1800000000.0,0.00192849100368,0.00640740402816,0.996741401948,-0.0569966885906,0.996741401948,-0.0569966885906,0.00192849100368,0.00640740402816
1900000000.0,0.00197152560931,0.00676119983533,0.996549284769,-0.0601609910945,0.996549284769,-0.0601609910945,0.00197152560931,0.00676119983533
2000000000.0,0.00201675760259,0.00711467093515,0.996347035226,-0.06332490082,0.996347035226,-0.06332490082,0.00201675760259,0.00711467093515
2100000000.0,0.00206419063495,0.00746780333745,0.996134647236,-0.0664883909813,0.996134647236,-0.0664883909813,0.00206419063495,0.00746780333745
2200000000.0,0.00211382758558,0.00782058315078,0.995912115465,-0.0696514345339,0.995912115465,-0.0696514345339,0.00211382758558,0.00782058315078
2300000000.0,0.00216567067513,0.00817299658071,0.995679435216,-0.0728140041918,0.995679435216,-0.0728140041918,0.00216567067513,0.00817299658071
2400000000.0,0.00221972155704,0.00852502992805,0.995436602342,-0.0759760724433,0.995436602342,-0.0759760724433,0.00221972155704,0.00852502992805
2500000000.0,0.00227598139211,0.00887666958697,0.995183613174,-0.079137611565,0.995183613174,-0.079137611565,0.00227598139211,0.00887666958697
2600000000.0,0.0023344509095,0.00922790204318,0.994920464465,-0.0822985936336,0.994920464465,-0.0822985936336,0.0023344509095,0.00922790204318
2700000000.0,0.00239513045746,0.00957871387208,0.994647153338,-0.0854589905378,0.994647153338,-0.0854589905378,0.00239513045746,0.00957871387208
2800000000.0,0.00245802004553,0.00992909173694,0.994363677251,-0.0886187739884,0.994363677251,-0.0886187739884,0.00245802004553,0.00992909173694
2900000000.0,0.00252311938014,0.0102790223871,0.994070033962,-0.0917779155271,0.994070033962,-0.0917779155271,0.00252311938014,0.0102790223871
3000000000.0,0.00259042789466,0.0106284926563,0.9937662215,-0.0949363865356,0.9937662215,-0.0949363865356,0.00259042789466,0.0106284926563
3100000000.0,0.00265994477508,0.0109774894608,0.993452238144,-0.0980941582433,0.993452238144,-0.0980941582433,0.00265994477508,0.0109774894608
3200000000.0,0.00273166898198,0.0113259997981,0.993128082402,-0.101251201734,0.993128082402,-0.101251201734,0.00273166898198,0.0113259997981
3300000000.0,0.00280559926948,0.0116740107447,0.992793752995,-0.104407487953,0.992793752995,-0.104407487953,0.00280559926948,0.0116740107447
3400000000.0,0.00288173420167,0.0120215094552,0.992449248842,-0.107562987715,0.992449248842,-0.107562987715,0.00288173420167,0.0120215094552
3500000000.0,0.0029600721669,0.0123684831606,0.99209456905,-0.110717671704,0.99209456905,-0.110717671704,0.0029600721669,0.0123684831606
3600000000.0,0.00304061139028,0.0127149191665,0.991729712897,-0.113871510487,0.991729712897,-0.113871510487,0.00304061139028,0.0127149191665
3700000000.0,0.00312334994468,0.0130608048522,0.991354679832,-0.117024474513,0.991354679832,-0.117024474513,0.00312334994468,0.0130608048522
3800000000.0,0.00320828576046,0.0134061276688,0.990969469459,-0.12017653412,0.990969469459,-0.12017653412,0.00320828576046,0.0134061276688
3900000000.0,0.00329541663401,0.0137508751384,0.990574081535,-0.123327659538,0.990574081535,-0.123327659538,0.00329541663401,0.0137508751384
4000000000.0,0.00338474023546,0.0140950348525,0.990168515962,-0.126477820895,0.990168515962,-0.126477820895,0.00338474023546,0.0140950348525
4100000000.0,0.00347625411546,0.0144385944709,0.989752772783,-0.12962698822,0.989752772783,-0.12962698822,0.00347625411546,0.0144385944709
4200000000.0,0.00356995571129,0.0147815417203,0.989326852176,-0.132775131446,0.989326852176,-0.132775131446,0.00356995571129,0.0147815417203
4300000000.0,0.00366584235239,0.0151238643935,0.988890754451,-0.135922220416,0.988890754451,-0.135922220416,0.00366584235239,0.0151238643935
4400000000.0,0.0037639112653,0.0154655503478,0.988444480045,-0.139068224884,0.988444480045,-0.139068224884,0.0037639112653,0.0154655503478
4500000000.0,0.00386415957813,0.0158065875045,0.987988029522,-0.142213114517,0.987988029522,-0.142213114517,0.00386415957813,0.0158065875045
4600000000.0,0.00396658432463,0.0161469638473,0.987521403567,-0.145356858902,0.987521403567,-0.145356858902,0.00396658432463,0.0161469638473
4700000000.0,0.0040711824479,0.0164866674215,0.987044602986,-0.148499427547,0.987044602986,-0.148499427547,0.0040711824479,0.0164866674215
4800000000.0,0.00417795080372,0.0168256863333,0.986557628701,-0.151640789881,0.986557628701,-0.151640789881,0.00417795080372,0.0168256863333
4900000000.0,0.00428688616369,0.0171640087481,0.986060481752,-0.154780915262,0.986060481752,-0.154780915262,0.00428688616369,0.0171640087481
5000000000.0,0.00439798521802,0.0175016228906,0.985553163293,-0.157919772975,0.985553163293,-0.157919772975,0.00439798521802,0.0175016228906
5100000000.0,0.00451124457812,0.0178385170429,0.98503567459,-0.161057332236,0.98503567459,-0.161057332236,0.00451124457812,0.0178385170429
5200000000.0,0.00462666077901,0.0181746795443,0.98450801702,-0.164193562196,0.98450801702,-0.164193562196,0.00462666077901,0.0181746795443
5300000000.0,0.00474423028151,0.0185100987901,0.983970192073,-0.167328431939,0.983970192073,-0.167328431939,0.00474423028151,0.0185100987901
5400000000.0,0.0048639494743,0.0188447632311,0.983422201347,-0.170461910488,0.983422201347,-0.170461910488,0.0048639494743,0.0188447632311
5500000000.0,0.00498581467578,0.0191786613725,0.982864046547,-0.173593966807,0.982864046547,-0.173593966807,0.00498581467578,0.0191786613725
5600000000.0,0.00510982213586,0.0195117817732,0.98229572949,-0.176724569799,0.98229572949,-0.176724569799,0.00510982213586,0.0195117817732
5700000000.0,0.00523596803758,0.0198441130452,0.981717252096,-0.179853688314,0.981717252096,-0.179853688314,0.00523596803758,0.0198441130452
5800000000.0,0.00536424849859,0.0201756438527,0.981128616393,-0.182981291143,0.981128616393,-0.182981291143,0.00536424849859,0.0201756438527
5900000000.0,0.00549465957264,0.0205063629115,0.980529824516,-0.186107347029,0.980529824516,-0.186107347029,0.00549465957264,0.0205063629115
6000000000.0,0.00562719725087,0.0208362589882,0.979920878705,-0.189231824661,0.979920878705,-0.189231824661,0.00562719725087,0.0208362589882
6100000000.0,0.00576185746303,0.0211653208997,0.979301781304,-0.192354692678,0.979301781304,-0.192354692678,0.00576185746303,0.0211653208997
6200000000.0,0.00589863607871,0.0214935375125,0.978672534764,-0.195475919675,0.978672534764,-0.195475919675,0.00589863607871,0.0214935375125
6300000000.0,0.00603752890837,0.0218208977419,0.978033141639,-0.198595474196,0.978033141639,-0.198595474196,0.00603752890837,0.0218208977419
6400000000.0,0.0061785317044,0.0221473905516,0.977383604587,-0.201713324744,0.977383604587,-0.201713324744,0.0061785317044,0.0221473905516
6500000000.0,0.0063216401621,0.0224730049529,0.976723926372,-0.204829439776,0.976723926372,-0.204829439776,0.0063216401621,0.0224730049529
6600000000.0,0.00646684992055,0.0227977300045,0.97605410986,-0.207943787708,0.97605410986,-0.207943787708,0.00646684992055,0.0227977300045
6700000000.0,0.00661415656354,0.0231215548114,0.975374158022,-0.211056336917,0.975374158022,-0.211056336917,0.00661415656354,0.0231215548114
6800000000.0,0.0067635556203,0.0234444685248,0.974684073932,-0.214167055739,0.974684073932,-0.214167055739,0.0067635556203,0.0234444685248
6900000000.0,0.00691504256636,0.0237664603413,0.973983860767,-0.217275912472,0.973983860767,-0.217275912472,0.00691504256636,0.0237664603413
7000000000.0,0.00706861282422,0.0240875195026,0.973273521809,-0.220382875379,0.973273521809,-0.220382875379,0.00706861282422,0.0240875195026
7100000000.0,0.00722426176406,0.0244076352947,0.972553060442,-0.223487912686,0.972553060442,-0.223487912686,0.00722426176406,0.0244076352947
7200000000.0,0.0073819847044,0.0247267970477,0.971822480155,-0.226590992586,0.971822480155,-0.226590992586,0.0073819847044,0.0247267970477
7300000000.0,0.00754177691271,0.0250449941352,0.971081784538,-0.229692083237,0.971081784538,-0.229692083237,0.00754177691271,0.0250449941352
7400000000.0,0.00770363360602,0.0253622159737,0.970330977286,-0.232791152768,0.970330977286,-0.232791152768,0.00770363360602,0.0253622159737
7500000000.0,0.00786754995147,0.0256784520225,0.969570062197,-0.235888169275,0.969570062197,-0.235888169275,0.00786754995147,0.0256784520225
7600000000.0,0.00803352106686,0.0259936917828,0.968799043173,-0.238983100824,0.968799043173,-0.238983100824,0.00803352106686,0.0259936917828
7700000000.0,0.00820154202115,0.0263079247977,0.968017924219,-0.242075915455,0.968017924219,-0.242075915455,0.00820154202115,0.0263079247977
7800000000.0,0.00837160783494,0.0266211406515,0.967226709442,-0.245166581178,0.967226709442,-0.245166581178,0.00837160783494,0.0266211406515
7900000000.0,0.00854371348094,0.0269333289694,0.966425403055,-0.248255065976,0.966425403055,-0.248255065976,0.00854371348094,0.0269333289694
8000000000.0,0.00871785388443,0.027244479417,0.965614009373,-0.251341337809,0.965614009373,-0.251341337809,0.00871785388443,0.027244479417
8100000000.0,0.00889402392365,0.0275545817002,0.964792532815,-0.25442536461,0.964792532815,-0.25442536461,0.00889402392365,0.0275545817002
8200000000.0,0.00907221843023,0.0278636255643,0.963960977903,-0.257507114289,0.963960977903,-0.257507114289,0.00907221843023,0.0278636255643
8300000000.0,0.00925243218956,0.0281716007943,0.963119349265,-0.260586554734,0.963119349265,-0.260586554734,0.00925243218956,0.0281716007943
8400000000.0,0.00943465994115,0.028478497214,0.962267651631,-0.263663653809,0.962267651631,-0.263663653809,0.00943465994115,0.028478497214
8500000000.0,0.00961889637903,0.0287843046857,0.961405889834,-0.266738379359,0.961405889834,-0.266738379359,0.00961889637903,0.0287843046857
8600000000.0,0.00980513615201,0.0290890131103,0.960534068813,-0.269810699208,0.960534068813,-0.269810699208,0.00980513615201,0.0290890131103
8700000000.0,0.00999337386406,0.0293926124266,0.959652193611,-0.272880581162,0.959652193611,-0.272880581162,0.00999337386406,0.0293926124266
8800000000.0,0.0101836040746,0.0296950926109,0.958760269374,-0.275947993006,0.958760269374,-0.275947993006,0.0101836040746,0.0296950926109
8900000000.0,0.0103758212988,0.029996443677,0.957858301354,-0.27901290251,0.957858301354,-0.27901290251,0.0103758212988,0.029996443677
9000000000.0,0.0105700200078,0.0302966556756,0.956946294904,-0.282075277426,0.956946294904,-0.282075277426,0.0105700200078,0.0302966556756
9100000000.0,0.0107661946291,0.0305957186942,0.956024255486,-0.285135085489,0.956024255486,-0.285135085489,0.0107661946291,0.0305957186942
9200000000.0,0.0109643395468,0.0308936228568,0.955092188664,-0.288192294421,0.955092188664,-0.288192294421,0.0109643395468,0.0308936228568
9300000000.0,0.0111644491016,0.0311903583235,0.954150100107,-0.291246871928,0.954150100107,-0.291246871928,0.0111644491016,0.0311903583235
9400000000.0,0.0113665175914,0.0314859152903,0.953197995589,-0.294298785703,0.953197995589,-0.294298785703,0.0113665175914,0.0314859152903
9500000000.0,0.0115705392714,0.0317802839888,0.952235880989,-0.297348003425,0.952235880989,-0.297348003425,0.0115705392714,0.0317802839888
9600000000.0,0.0117765083541,0.0320734546861,0.951263762291,-0.300394492761,0.951263762291,-0.300394492761,0.0117765083541,0.0320734546861
9700000000.0,0.0119844190099,0.0323654176841,0.950281645583,-0.303438221369,0.950281645583,-0.303438221369,0.0119844190099,0.0323654176841
9800000000.0,0.0121942653667,0.0326561633199,0.949289537061,-0.306479156892,0.949289537061,-0.306479156892,0.0121942653667,0.0326561633199
9900000000.0,0.012406041511,0.0329456819651,0.948287443025,-0.309517266966,0.948287443025,-0.309517266966,0.012406041511,0.0329456819651
10000000000.0,0.012619741487,0.0332339640257,0.947275369878,-0.312552519216,0.947275369878,-0.312552519216,0.012619741487,0.0332339640257
