freq (GHz),S11_real,S11_imag,S21_real,S21_imag,S12_real,S12_imag,S22_real,S22_imag
100000000.0,7.66633309579e-05,-0.000491008597816,0.999919858773,-0.000973425594141,0.999919858773,-0.000973425594141,7.66633309579e-05,-0.000491008597817
200000000.0,7.5055421886e-05,-0.000982049163733,0.99991684381,-0.00194689891789,0.99991684381,-0.00194689891789,7.5055421886e-05,-0.000982049163733
300000000.0,7.2354516359e-05,-0.00147313725231,0.99991277626,-0.00292044457198,0.99991277626,-0.00292044457198,7.23545163592e-05,-0.00147313725231
400000000.0,6.86279356701e-05,-0.00196428409106,0.999907588024,-0.00389408062843,0.999907588024,-0.00389408062843,6.86279356699e-05,-0.00196428409106
500000000.0,6.39012475634e-05,-0.00245549861275,0.999901252617,-0.0048678218409,0.999901252617,-0.0048678218409,6.39012475634e-05,-0.00245549861275
600000000.0,5.81871928174e-05,-0.00294678820005,0.999893756266,-0.00584168076549,0.999893756266,-0.00584168076549,5.81871928176e-05,-0.00294678820005
700000000.0,5.14930341189e-05,-0.00343815907065,0.999885090577,-0.00681566833195,0.999885090577,-0.00681566833195,5.14930341193e-05,-0.00343815907065
800000000.0,4.3823238189e-05,-0.00392961651379,0.999875249866,-0.00778979418973,0.999875249866,-0.00778979418973,4.3823238189e-05,-0.00392961651379
900000000.0,3.51806708925e-05,-0.00442116504795,0.999864229975,-0.00876406693684,0.999864229975,-0.00876406693684,3.51806708925e-05,-0.00442116504795
1000000000.0,2.55672039664e-05,-0.00491280853411,0.999852027672,-0.00973849428282,0.999852027672,-0.00973849428282,2.55672039664e-05,-0.00491280853411
1100000000.0,1.49840532235e-05,-0.00540455026048,0.999838640325,-0.0107130831696,0.999838640325,-0.0107130831696,1.49840532235e-05,-0.00540455026048
1200000000.0,3.43198086594e-06,-0.00589639300861,0.9998240657,-0.0116878398653,0.9998240657,-0.0116878398653,3.43198086594e-06,-0.00589639300861
1300000000.0,-9.08857652149e-06,-0.00638833910643,0.999808301845,-0.0126627700387,0.999808301845,-0.0126627700387,-9.0885765216e-06,-0.00638833910643
1400000000.0,-2.25774232532e-05,-0.00688039047113,0.999791347007,-0.0136378788191,0.999791347007,-0.0136378788191,-2.25774232533e-05,-0.00688039047113
1500000000.0,-3.70345462933e-05,-0.00737254864571,0.999773199581,-0.0146131708474,0.999773199581,-0.0146131708474,-3.70345462929e-05,-0.00737254864571
1600000000.0,-5.2460073902e-05,-0.00786481482985,0.99975385807,-0.0155886503179,0.99975385807,-0.0155886503179,-5.24600739021e-05,-0.00786481482985
1700000000.0,-6.88542454489e-05,-0.00835718990582,0.999733321062,-0.0165643210149,0.999733321062,-0.0165643210149,-6.88542454489e-05,-0.00835718990582
1800000000.0,-8.62173888213e-05,-0.0088496744621,0.999711587211,-0.0175401863436,0.999711587211,-0.0175401863436,-8.62173888216e-05,-0.0088496744621
1900000000.0,-0.000104549903166,-0.00934226881324,0.999688655221,-0.0185162493579,0.999688655221,-0.0185162493579,-0.000104549903167,-0.00934226881324
2000000000.0,-0.000123852245436,-0.009834973018,0.999664523839,-0.0194925127845,0.999664523839,-0.0194925127845,-0.000123852245436,-0.009834973018
2100000000.0,-0.000144124919723,-0.0103277868955,0.999639191842,-0.0204689790443,0.999639191842,-0.0204689790443,-0.000144124919723,-0.0103277868955
2200000000.0,-0.000165368468662,-0.0108207100396,0.999612658039,-0.0214456502718,0.999612658039,-0.0214456502718,-0.000165368468662,-0.0108207100396
2300000000.0,-0.000187583466418,-0.0113137418319,0.999584921258,-0.0224225283324,0.999584921258,-0.0224225283324,-0.000187583466418,-0.0113137418319
2400000000.0,-0.000210770512867,-0.0118068814541,0.999555980352,-0.0233996148381,0.999555980352,-0.0233996148381,-0.000210770512867,-0.0118068814541
2500000000.0,-0.000234930228731,-0.0123001278985,0.999525834187,-0.024376911162,0.999525834187,-0.024376911162,-0.000234930228731,-0.0123001278985
2600000000.0,-0.000260063251459,-0.0127934799784,0.999494481647,-0.0253544184513,0.999494481647,-0.0253544184513,-0.000260063251459,-0.0127934799784
2700000000.0,-0.000286170231687,-0.013286936337,0.999461921629,-0.0263321376394,0.999461921629,-0.0263321376394,-0.000286170231687,-0.013286936337
2800000000.0,-0.000313251830209,-0.0137804954566,0.999428153044,-0.027310069457,0.999428153044,-0.027310069457,-0.000313251830209,-0.0137804954566
2900000000.0,-0.000341308715314,-0.0142741556659,0.999393174816,-0.0282882144425,0.999393174816,-0.0282882144425,-0.000341308715314,-0.0142741556659
3000000000.0,-0.000370341560469,-0.0147679151481,0.999356985878,-0.0292665729514,0.999356985878,-0.0292665729514,-0.000370341560469,-0.0147679151481
3100000000.0,-0.000400351042257,-0.0152617719473,0.999319585176,-0.0302451451653,0.999319585176,-0.0302451451653,-0.000400351042257,-0.0152617719473
3200000000.0,-0.000431337838565,-0.0157557239754,0.999280971667,-0.0312239311004,0.999280971667,-0.0312239311004,-0.000431337838565,-0.0157557239754
3300000000.0,-0.000463302626935,-0.0162497690182,0.999241144318,-0.0322029306149,0.999241144318,-0.0322029306149,-0.000463302626935,-0.0162497690182
3400000000.0,-0.000496246083104,-0.0167439047408,0.999200102108,-0.0331821434164,0.999200102108,-0.0331821434164,-0.000496246083103,-0.0167439047408
3500000000.0,-0.000530168879679,-0.0172381286937,0.999157844026,-0.034161569069,0.999157844026,-0.034161569069,-0.000530168879679,-0.0172381286937
3600000000.0,-0.000565071684934,-0.017732438317,0.999114369072,-0.0351412069995,0.999114369072,-0.0351412069995,-0.000565071684934,-0.017732438317
3700000000.0,-0.00060095516171,-0.0182268309463,0.999069676256,-0.0361210565036,0.999069676256,-0.0361210565036,-0.000600955161709,-0.0182268309463
3800000000.0,-0.000637819966412,-0.0187213038165,0.9990237646,-0.0371011167515,0.9990237646,-0.0371011167515,-0.000637819966412,-0.0187213038165
3900000000.0,-0.0006756667481,-0.0192158540662,0.998976633138,-0.0380813867935,0.998976633138,-0.0380813867935,-0.000675666748101,-0.0192158540662
4000000000.0,-0.000714496147631,-0.0197104787425,0.998928280913,-0.0390618655652,0.998928280913,-0.0390618655652,-0.000714496147631,-0.0197104787425
4100000000.0,-0.000754308796887,-0.0202051748041,0.998878706982,-0.040042551892,0.998878706982,-0.040042551892,-0.000754308796887,-0.0202051748041
4200000000.0,-0.000795105318048,-0.0206999391255,0.998827910412,-0.0410234444942,0.998827910412,-0.0410234444942,-0.000795105318048,-0.0206999391255
4300000000.0,-0.000836886322926,-0.0211947685006,0.998775890283,-0.0420045419912,0.998775890283,-0.0420045419912,-0.000836886322926,-0.0211947685006
4400000000.0,-0.000879652412345,-0.0216896596458,0.998722645686,-0.0429858429055,0.998722645686,-0.0429858429055,-0.000879652412345,-0.0216896596458
4500000000.0,-0.000923404175564,-0.0221846092034,0.998668175727,-0.043967345667,0.998668175727,-0.043967345667,-0.000923404175564,-0.0221846092034
4600000000.0,-0.000968142189734,-0.0226796137448,0.998612479522,-0.0449490486168,0.998612479522,-0.0449490486168,-0.000968142189734,-0.0226796137448
4700000000.0,-0.0010138670194,-0.0231746697731,0.998555556201,-0.0459309500105,0.998555556201,-0.0459309500105,-0.0010138670194,-0.0231746697731
4800000000.0,-0.00106057921603,-0.0236697737265,0.998497404906,-0.0469130480219,0.998497404906,-0.0469130480219,-0.00106057921603,-0.0236697737265
4900000000.0,-0.00110827931757,-0.0241649219804,0.998438024794,-0.0478953407465,0.998438024794,-0.0478953407465,-0.00110827931757,-0.0241649219804
5000000000.0,-0.00115696784806,-0.0246601108502,0.998377415033,-0.0488778262042,0.998377415033,-0.0488778262042,-0.00115696784806,-0.0246601108502
5100000000.0,-0.00120664531721,-0.0251553365942,0.998315574807,-0.0498605023427,0.998315574807,-0.0498605023427,-0.00120664531721,-0.0251553365942
5200000000.0,-0.00125731222007,-0.0256505954152,0.998252503313,-0.0508433670402,0.998252503313,-0.0508433670402,-0.00125731222007,-0.0256505954152
5300000000.0,-0.00130896903666,-0.0261458834634,0.998188199761,-0.0518264181084,0.998188199761,-0.0518264181084,-0.00130896903666,-0.0261458834634
5400000000.0,-0.00136161623169,-0.0266411968384,0.998122663377,-0.052809653295,0.998122663377,-0.052809653295,-0.00136161623169,-0.0266411968384
5500000000.0,-0.00141525425424,-0.0271365315911,0.9980558934,-0.053793070286,0.9980558934,-0.053793070286,-0.00141525425424,-0.0271365315911
5600000000.0,-0.00146988353747,-0.0276318837261,0.997987889083,-0.0547766667089,0.997987889083,-0.0547766667089,-0.00146988353747,-0.0276318837261
5700000000.0,-0.00152550449839,-0.0281272492034,0.997918649695,-0.055760440134,0.997918649695,-0.055760440134,-0.00152550449839,-0.0281272492034
5800000000.0,-0.00158211753757,-0.0286226239401,0.99784817452,-0.0567443880776,0.99784817452,-0.0567443880776,-0.00158211753757,-0.0286226239401
5900000000.0,-0.00163972303894,-0.0291180038127,0.997776462855,-0.0577285080039,0.997776462855,-0.0577285080039,-0.00163972303894,-0.0291180038127
6000000000.0,-0.00169832136955,-0.0296133846582,0.997703514015,-0.0587127973266,0.997703514015,-0.0587127973266,-0.00169832136955,-0.0296133846582
6100000000.0,-0.00175791287937,-0.0301087622764,0.997629327327,-0.0596972534114,0.997629327327,-0.0596972534114,-0.00175791287937,-0.0301087622764
6200000000.0,-0.00181849790112,-0.0306041324309,0.997553902137,-0.060681873578,0.997553902137,-0.060681873578,-0.00181849790112,-0.0306041324309
6300000000.0,-0.00188007675005,-0.0310994908511,0.997477237803,-0.0616666551016,0.997477237803,-0.0616666551016,-0.00188007675005,-0.0310994908511
6400000000.0,-0.00194264972379,-0.0315948332333,0.9973993337,-0.0626515952149,0.9973993337,-0.0626515952149,-0.00194264972379,-0.0315948332333
6500000000.0,-0.00200621710219,-0.0320901552425,0.997320189219,-0.0636366911095,0.997320189219,-0.0636366911095,-0.00200621710219,-0.0320901552425
6600000000.0,-0.00207077914716,-0.0325854525135,0.997239803768,-0.0646219399381,0.997239803768,-0.0646219399381,-0.00207077914716,-0.0325854525135
6700000000.0,-0.00213633610255,-0.0330807206523,0.997158176767,-0.0656073388158,0.997158176767,-0.0656073388158,-0.00213633610255,-0.0330807206523
6800000000.0,-0.00220288819399,-0.0335759552374,0.997075307657,-0.0665928848215,0.997075307657,-0.0665928848215,-0.00220288819399,-0.0335759552374
6900000000.0,-0.0022704356288,-0.0340711518212,0.99699119589,-0.0675785749994,0.99699119589,-0.0675785749994,-0.0022704356288,-0.0340711518212
7000000000.0,-0.00233897859583,-0.0345663059307,0.996905840939,-0.0685644063607,0.996905840939,-0.0685644063607,-0.00233897859583,-0.0345663059307
7100000000.0,-0.00240851726539,-0.0350614130693,0.99681924229,-0.0695503758848,0.99681924229,-0.0695503758848,-0.00240851726539,-0.0350614130693
7200000000.0,-0.00247905178915,-0.0355564687173,0.996731399446,-0.0705364805205,0.996731399446,-0.0705364805205,-0.00247905178915,-0.0355564687173
7300000000.0,-0.00255058230001,-0.0360514683335,0.996642311927,-0.0715227171875,0.996642311927,-0.0715227171875,-0.00255058230001,-0.0360514683335
7400000000.0,-0.00262310891204,-0.0365464073558,0.996551979268,-0.0725090827775,0.996551979268,-0.0725090827775,-0.00262310891204,-0.0365464073558
7500000000.0,-0.00269663172041,-0.0370412812023,0.996460401024,-0.0734955741554,0.996460401024,-0.0734955741554,-0.00269663172041,-0.0370412812023
7600000000.0,-0.00277115080129,-0.0375360852725,0.996367576762,-0.0744821881603,0.996367576762,-0.0744821881603,-0.00277115080129,-0.0375360852725
7700000000.0,-0.00284666621179,-0.0380308149481,0.996273506069,-0.0754689216071,0.996273506069,-0.0754689216071,-0.00284666621179,-0.0380308149481
7800000000.0,-0.00292317798989,-0.0385254655938,0.996178188546,-0.076455771287,0.996178188546,-0.076455771287,-0.00292317798989,-0.0385254655938
7900000000.0,-0.00300068615439,-0.0390200325581,0.996081623813,-0.0774427339687,0.996081623813,-0.0774427339687,-0.00300068615439,-0.0390200325581
8000000000.0,-0.00307919070488,-0.0395145111745,0.995983811506,-0.0784298063997,0.995983811506,-0.0784298063997,-0.00307919070488,-0.0395145111745
8100000000.0,-0.00315869162161,-0.0400088967619,0.995884751276,-0.0794169853067,0.995884751276,-0.0794169853067,-0.00315869162161,-0.0400088967619
8200000000.0,-0.00323918886555,-0.0405031846259,0.995784442794,-0.0804042673972,0.995784442794,-0.0804042673972,-0.00323918886555,-0.0405031846259
8300000000.0,-0.00332068237827,-0.0409973700588,0.995682885745,-0.0813916493597,0.995682885745,-0.0813916493597,-0.00332068237827,-0.0409973700588
8400000000.0,-0.00340317208195,-0.041491448341,0.995580079833,-0.0823791278652,0.995580079833,-0.0823791278652,-0.00340317208195,-0.041491448341
8500000000.0,-0.0034866578793,-0.0419854147416,0.995476024777,-0.0833666995675,0.995476024777,-0.0833666995675,-0.0034866578793,-0.0419854147416
8600000000.0,-0.0035711396536,-0.0424792645188,0.995370720314,-0.0843543611045,0.995370720314,-0.0843543611045,-0.0035711396536,-0.0424792645188
8700000000.0,-0.0036566172686,-0.0429729929208,0.995264166197,-0.0853421090984,0.995264166197,-0.0853421090984,-0.0036566172686,-0.0429729929208
8800000000.0,-0.00374309056857,-0.0434665951864,0.995156362197,-0.0863299401572,0.995156362197,-0.0863299401572,-0.00374309056857,-0.0434665951864
8900000000.0,-0.00383055937821,-0.0439600665456,0.995047308101,-0.0873178508747,0.995047308101,-0.0873178508747,-0.00383055937821,-0.0439600665456
9000000000.0,-0.00391902350268,-0.0444534022202,0.994937003714,-0.0883058378316,0.994937003714,-0.0883058378316,-0.00391902350268,-0.0444534022202
9100000000.0,-0.0040084827276,-0.0449465974246,0.994825448856,-0.0892938975964,0.994825448856,-0.0892938975964,-0.0040084827276,-0.0449465974246
9200000000.0,-0.00409893681899,-0.0454396473659,0.994712643367,-0.0902820267253,0.994712643367,-0.0902820267253,-0.00409893681899,-0.0454396473659
9300000000.0,-0.0041903855233,-0.0459325472448,0.9945985871,-0.0912702217636,0.9945985871,-0.0912702217636,-0.0041903855233,-0.0459325472448
9400000000.0,-0.0042828285674,-0.0464252922563,0.994483279929,-0.0922584792462,0.994483279929,-0.0922584792462,-0.0042828285674,-0.0464252922563
9500000000.0,-0.00437626565858,-0.0469178775898,0.994366721742,-0.0932467956977,0.994366721742,-0.0932467956977,-0.00437626565858,-0.0469178775898
9600000000.0,-0.00447069648455,-0.0474102984297,0.994248912444,-0.0942351676334,0.994248912444,-0.0942351676334,-0.00447069648455,-0.0474102984297
9700000000.0,-0.0045661207134,-0.0479025499562,0.994129851959,-0.09522359156,0.994129851959,-0.09522359156,-0.0045661207134,-0.0479025499562
9800000000.0,-0.00466253799371,-0.0483946273455,0.994009540226,-0.0962120639757,0.994009540226,-0.0962120639757,-0.00466253799371,-0.0483946273455
9900000000.0,-0.00475994795445,-0.0488865257703,0.993887977203,-0.0972005813711,0.993887977203,-0.0972005813711,-0.00475994795445,-0.0488865257703
10000000000.0,-0.00485835020504,-0.0493782404001,0.993765162861,-0.0981891402293,0.993765162861,-0.0981891402293,-0.00485835020504,-0.0493782404001
