freq (GHz),S11_real,S11_imag,S21_real,S21_imag,S12_real,S12_imag,S22_real,S22_imag
100000000.0,0.0269945012635,0.00315716018612,0.973003004254,-0.00419177120833,0.973003004254,-0.00419177120833,0.0269945012635,0.00315716018612
200000000.0,0.0272084593575,0.00631140896946,0.972786471179,-0.00838064363383,0.972786471179,-0.00838064363383,0.0272084593575,0.00631140896946
300000000.0,0.0274027355008,0.00946351683872,0.972588539353,-0.0125673964612,0.972588539353,-0.0125673964612,0.0274027355008,0.00946351683872
400000000.0,0.027600219354,0.0126135597713,0.972386318914,-0.0167521129298,0.972386318914,-0.0167521129298,0.027600219354,0.0126135597713
500000000.0,0.0278097263638,0.0157614523951,0.972170994202,-0.020934714204,0.972170994202,-0.020934714204,0.0278097263638,0.0157614523951
600000000.0,0.0280357454985,0.0189070381174,0.971938076018,-0.0251150497515,0.971938076018,-0.0251150497515,0.0280357454985,0.0189070381174
700000000.0,0.028280918858,0.0220501215377,0.971684922014,-0.0292929298832,0.971684922014,-0.0292929298832,0.028280918858,0.0220501215377
800000000.0,0.0285469471694,0.0251904835135,0.971409831192,-0.0334681408951,0.971409831192,-0.0334681408951,0.0285469471694,0.0251904835135
900000000.0,0.0288349931706,0.0283278892806,0.971111640526,-0.0376404532393,0.971111640526,-0.0376404532393,0.0288349931706,0.0283278892806
1000000000.0,0.0291458861795,0.0314620932865,0.970789520389,-0.041809626392,0.970789520389,-0.041809626392,0.0291458861795,0.0314620932865
1100000000.0,0.0294802358676,0.0345928422824,0.970442860779,-0.0459754119723,0.970442860779,-0.0459754119723,0.0294802358676,0.0345928422824
1200000000.0,0.0298385000881,0.0377198774148,0.970071203494,-0.0501375558535,0.970071203494,-0.0501375558535,0.0298385000881,0.0377198774148
1300000000.0,0.0302210275735,0.0408429357055,0.969674199432,-0.0542957996591,0.969674199432,-0.0542957996591,0.0302210275735,0.0408429357055
1400000000.0,0.0306280860173,0.0439617511377,0.969251580511,-0.0584498818612,0.969251580511,-0.0584498818612,0.0306280860173,0.0439617511377
1500000000.0,0.0310598812229,0.0470760554794,0.968803140519,-0.0625995386146,0.968803140519,-0.0625995386146,0.0310598812229,0.0470760554794
1600000000.0,0.0315165705638,0.0501855789241,0.968328721654,-0.0667445044063,0.968328721654,-0.0667445044063,0.0315165705638,0.0501855789241
1700000000.0,0.0319982726947,0.053290050602,0.967828204814,-0.0708845125742,0.967828204814,-0.0708845125742,0.0319982726947,0.053290050602
1800000000.0,0.0325050747145,0.056389198997,0.967301502435,-0.0750192957296,0.967301502435,-0.0750192957296,0.0325050747145,0.056389198997
1900000000.0,0.0330370375573,0.0594827522923,0.966748553099,-0.0791485861094,0.966748553099,-0.0791485861094,0.0330370375573,0.0594827522923
2000000000.0,0.033594200119,0.062570438663,0.966169317405,-0.0832721158729,0.966169317405,-0.0832721158729,0.033594200119,0.062570438663
2100000000.0,0.0341765824665,0.065651986527,0.965563774766,-0.0873896173569,0.965563774766,-0.0873896173569,0.0341765824665,0.065651986527
2200000000.0,0.0347841883685,0.0687271247637,0.964931920873,-0.0915008232981,0.964931920873,-0.0915008232981,0.0347841883685,0.0687271247637
2300000000.0,0.0354170073173,0.0717955829061,0.964273765677,-0.0956054670291,0.964273765677,-0.0956054670291,0.0354170073173,0.0717955829061
2400000000.0,0.0360750161624,0.0748570913131,0.963589331751,-0.0997032826528,0.963589331751,-0.0997032826528,0.0360750161624,0.0748570913131
2500000000.0,0.0367581804459,0.0779113813235,0.962878652961,-0.1037940052,0.962878652961,-0.1037940052,0.0367581804459,0.0779113813235
2600000000.0,0.0374664555044,0.0809581853969,0.962141773359,-0.107877370772,0.962141773359,-0.107877370772,0.0374664555044,0.0809581853969
2700000000.0,0.0381997873875,0.0839972372425,0.961378746268,-0.111953116673,0.961378746268,-0.111953116673,0.0381997873875,0.0839972372425
2800000000.0,0.0389581136301,0.0870282719373,0.960589633506,-0.116020981528,0.960589633506,-0.116020981528,0.0389581136301,0.0870282719373
2900000000.0,0.0397413639079,0.0900510260374,0.959774504736,-0.120080705399,0.959774504736,-0.120080705399,0.0397413639079,0.0900510260374
3000000000.0,0.0405494605975,0.0930652376802,0.958933436902,-0.124132029885,0.958933436902,-0.124132029885,0.0405494605975,0.0930652376802
3100000000.0,0.0413823192599,0.0960706466812,0.958066513745,-0.128174698225,0.958066513745,-0.128174698225,0.0413823192599,0.0960706466812
3200000000.0,0.0422398490604,0.0990669946253,0.957173825387,-0.132208455387,0.957173825387,-0.132208455387,0.0422398490604,0.0990669946253
3300000000.0,0.0431219531365,0.102054024953,0.956255467962,-0.136233048159,0.956255467962,-0.136233048159,0.0431219531365,0.102054024953
3400000000.0,0.0440285289218,0.105031483041,0.955311543288,-0.140248225227,0.955311543288,-0.140248225227,0.0440285289218,0.105031483041
3500000000.0,0.0449594684346,0.107999116282,0.954342158585,-0.144253737259,0.954342158585,-0.144253737259,0.0449594684346,0.107999116282
3600000000.0,0.0459146585354,0.110956674157,0.953347426214,-0.148249336978,0.953347426214,-0.148249336978,0.0459146585354,0.110956674157
3700000000.0,0.0468939811591,0.113903908305,0.952327463444,-0.152234779232,0.952327463444,-0.152234779232,0.0468939811591,0.113903908305
3800000000.0,0.0478973135253,0.116840572595,0.951282392245,-0.156209821066,0.951282392245,-0.156209821066,0.0478973135253,0.116840572595
3900000000.0,0.048924528331,0.119766423185,0.950212339092,-0.160174221785,0.950212339092,-0.160174221785,0.048924528331,0.119766423185
4000000000.0,0.0499754939263,0.12268121859,0.949117434792,-0.16412774302,0.949117434792,-0.16412774302,0.0499754939263,0.12268121859
4100000000.0,0.0510500744779,0.125584719735,0.947997814319,-0.168070148784,0.947997814319,-0.168070148784,0.0510500744779,0.125584719735
4200000000.0,0.0521481301202,0.128476690019,0.946853616665,-0.172001205536,0.946853616665,-0.172001205536,0.0521481301202,0.128476690019
4300000000.0,0.053269517097,0.131356895365,0.945684984695,-0.175920682231,0.945684984695,-0.175920682231,0.053269517097,0.131356895365
4400000000.0,0.0544140878939,0.134225104276,0.944492065018,-0.179828350375,0.944492065018,-0.179828350375,0.0544140878939,0.134225104276
4500000000.0,0.0555816913645,0.137081087883,0.943275007859,-0.18372398408,0.943275007859,-0.18372398408,0.0555816913645,0.137081087883
4600000000.0,0.0567721728483,0.139924619993,0.942033966943,-0.187607360108,0.942033966943,-0.187607360108,0.0567721728483,0.139924619993
4700000000.0,0.0579853742851,0.142755477142,0.940769099377,-0.191478257922,0.940769099377,-0.191478257922,0.0579853742851,0.142755477142
4800000000.0,0.0592211343221,0.145573438632,0.939480565547,-0.19533645973,0.939480565547,-0.19533645973,0.0592211343221,0.145573438632
4900000000.0,0.0604792884189,0.148378286576,0.938168529012,-0.199181750529,0.938168529012,-0.199181750529,0.0604792884189,0.148378286576
5000000000.0,0.061759668947,0.151169805945,0.936833156402,-0.203013918145,0.936833156402,-0.203013918145,0.061759668947,0.151169805945
5100000000.0,0.0630621052868,0.153947784597,0.935474617325,-0.206832753276,0.935474617325,-0.206832753276,0.0630621052868,0.153947784597
5200000000.0,0.0643864239214,0.156712013326,0.934093084271,-0.210638049528,0.934093084271,-0.210638049528,0.0643864239214,0.156712013326
5300000000.0,0.0657324485277,0.159462285887,0.932688732519,-0.214429603451,0.932688732519,-0.214429603451,0.0657324485277,0.159462285887
5400000000.0,0.0671000000654,0.162198399039,0.931261740055,-0.218207214576,0.931261740055,-0.218207214576,0.0671000000654,0.162198399039
5500000000.0,0.0684888968632,0.164920152572,0.929812287476,-0.221970685445,0.929812287476,-0.221970685445,0.0684888968632,0.164920152572
5600000000.0,0.0698989547042,0.167627349343,0.928340557915,-0.225719821644,0.928340557915,-0.225719821644,0.0698989547042,0.167627349343
5700000000.0,0.0713299869085,0.170319795299,0.926846736948,-0.229454431836,0.926846736948,-0.229454431836,0.0713299869085,0.170319795299
5800000000.0,0.072781804415,0.17299729951,0.925331012522,-0.233174327782,0.925331012522,-0.233174327782,0.072781804415,0.17299729951
5900000000.0,0.0742542158617,0.175659674194,0.923793574869,-0.236879324374,0.923793574869,-0.236879324374,0.0742542158617,0.175659674194
6000000000.0,0.0757470276642,0.178306734741,0.922234616427,-0.240569239658,0.922234616427,-0.240569239658,0.0757470276642,0.178306734741
6100000000.0,0.0772600440937,0.180938299735,0.920654331767,-0.244243894857,0.920654331767,-0.244243894857,0.0772600440937,0.180938299735
6200000000.0,0.0787930673533,0.183554190979,0.919052917511,-0.247903114393,0.919052917511,-0.247903114393,0.0787930673533,0.183554190979
6300000000.0,0.0803458976542,0.186154233512,0.91743057226,-0.251546725909,0.91743057226,-0.251546725909,0.0803458976542,0.186154233512
6400000000.0,0.0819183332895,0.18873825563,0.91578749652,-0.255174560284,0.91578749652,-0.255174560284,0.0819183332895,0.18873825563
6500000000.0,0.083510170709,0.191306088902,0.914123892622,-0.258786451659,0.914123892622,-0.258786451659,0.083510170709,0.191306088902
6600000000.0,0.0851212045912,0.193857568186,0.912439964658,-0.262382237442,0.912439964658,-0.262382237442,0.0851212045912,0.193857568186
6700000000.0,0.0867512279161,0.196392531643,0.910735918403,-0.265961758333,0.910735918403,-0.265961758333,0.0867512279161,0.196392531643
6800000000.0,0.0884000320363,0.198910820752,0.909011961244,-0.269524858331,0.909011961244,-0.269524858331,0.0884000320363,0.198910820752
6900000000.0,0.0900674067476,0.201412280319,0.907268302113,-0.273071384745,0.907268302113,-0.273071384745,0.0900674067476,0.201412280319
7000000000.0,0.0917531403593,0.203896758487,0.905505151412,-0.276601188213,0.905505151412,-0.276601188213,0.0917531403593,0.203896758487
7100000000.0,0.0934570197629,0.20636410675,0.903722720949,-0.2801141227,0.903722720949,-0.2801141227,0.0934570197629,0.20636410675
7200000000.0,0.0951788305013,0.208814179954,0.901921223863,-0.283610045513,0.901921223863,-0.283610045513,0.0951788305013,0.208814179954
7300000000.0,0.0969183568362,0.211246836306,0.900100874565,-0.287088817306,0.900100874565,-0.287088817306,0.0969183568362,0.211246836306
7400000000.0,0.0986753818156,0.213661937379,0.898261888663,-0.290550302085,0.898261888663,-0.290550302085,0.0986753818156,0.213661937379
7500000000.0,0.10044968734,0.216059348117,0.896404482897,-0.29399436721,0.896404482897,-0.29399436721,0.10044968734,0.216059348117
7600000000.0,0.10224105423,0.218438936834,0.894528875077,-0.297420883401,0.894528875077,-0.297420883401,0.10224105423,0.218438936834
7700000000.0,0.104049262288,0.220800575218,0.892635284014,-0.300829724736,0.892635284014,-0.300829724736,0.104049262288,0.220800575218
7800000000.0,0.105874090366,0.22314413833,0.890723929455,-0.304220768653,0.890723929455,-0.304220768653,0.105874090366,0.22314413833
7900000000.0,0.107715316431,0.225469504602,0.888795032023,-0.307593895949,0.888795032023,-0.307593895949,0.107715316431,0.225469504602
8000000000.0,0.109572717623,0.227776555834,0.886848813148,-0.310948990777,0.886848813148,-0.310948990777,0.109572717623,0.227776555834
8100000000.0,0.111446070321,0.230065177194,0.884885495011,-0.314285940642,0.884885495011,-0.314285940642,0.111446070321,0.230065177194
8200000000.0,0.113335150207,0.232335257207,0.882905300476,-0.317604636398,0.882905300476,-0.317604636398,0.113335150207,0.232335257207
8300000000.0,0.115239732323,0.234586687754,0.880908453032,-0.320904972239,0.880908453032,-0.320904972239,0.115239732323,0.234586687754
8400000000.0,0.117159591135,0.236819364064,0.87889517673,-0.324186845698,0.87889517673,-0.324186845698,0.117159591135,0.236819364064
8500000000.0,0.11909450059,0.239033184703,0.876865696128,-0.327450157631,0.876865696128,-0.327450157631,0.11909450059,0.239033184703
8600000000.0,0.121044234179,0.241228051568,0.874820236224,-0.330694812214,0.874820236224,-0.330694812214,0.121044234179,0.241228051568
8700000000.0,0.123008564992,0.243403869875,0.872759022404,-0.333920716931,0.872759022404,-0.333920716931,0.123008564992,0.243403869875
8800000000.0,0.124987265778,0.245560548148,0.870682280383,-0.337127782563,0.870682280383,-0.337127782563,0.124987265778,0.245560548148
8900000000.0,0.126980109003,0.247697998207,0.868590236144,-0.340315923175,0.868590236144,-0.340315923175,0.126980109003,0.247697998207
9000000000.0,0.128986866902,0.249816135152,0.866483115886,-0.343485056102,0.866483115886,-0.343485056102,0.128986866902,0.249816135152
9100000000.0,0.131007311542,0.251914877355,0.864361145966,-0.346635101937,0.864361145966,-0.346635101937,0.131007311542,0.251914877355
9200000000.0,0.133041214867,0.253994146435,0.862224552844,-0.349765984516,0.862224552844,-0.349765984516,0.133041214867,0.253994146435
9300000000.0,0.135088348764,0.256053867252,0.860073563032,-0.352877630899,0.860073563032,-0.352877630899,0.135088348764,0.256053867252
9400000000.0,0.137148485106,0.258093967882,0.857908403035,-0.355969971356,0.857908403035,-0.355969971356,0.137148485106,0.258093967882
9500000000.0,0.13922139581,0.260114379605,0.855729299302,-0.359042939347,0.855729299302,-0.359042939347,0.13922139581,0.260114379605
9600000000.0,0.141306852888,0.26211503688,0.853536478176,-0.362096471506,0.853536478176,-0.362096471506,0.141306852888,0.26211503688
9700000000.0,0.1434046285,0.264095877331,0.851330165837,-0.365130507618,0.851330165837,-0.365130507618,0.1434046285,0.264095877331
9800000000.0,0.145514494997,0.266056841723,0.849110588258,-0.3681449906,0.849110588258,-0.3681449906,0.145514494997,0.266056841723
9900000000.0,0.147636224982,0.267997873942,0.84687797115,-0.371139866482,0.84687797115,-0.371139866482,0.147636224982,0.267997873942
10000000000.0,0.149769591348,0.269918920973,0.844632539918,-0.374115084381,0.844632539918,-0.374115084381,0.149769591348,0.269918920973
