freq (GHz),S11_real,S11_imag,S21_real,S21_imag,S12_real,S12_imag,S22_real,S22_imag
100000000.0,0.000785549714102,0.0003002085542,0.999212768125,-0.000856571865739,0.999212768125,-0.000856571865739,0.000785549714102,0.0003002085542
200000000.0,0.000791300671224,0.000600404501785,0.999206025357,-0.00171314261916,0.999206025357,-0.00171314261916,0.000791300671224,0.000600404501785
300000000.0,0.000796178799325,0.000900591896608,0.999199845729,-0.00256972243157,0.999199845729,-0.00256972243157,0.000796178799325,0.000900591896608
400000000.0,0.000800866307995,0.00120077166611,0.999193546986,-0.00342631688966,0.999193546986,-0.00342631688966,0.000800866307995,0.00120077166611
500000000.0,0.000805625917502,0.00150094404127,0.999186866351,-0.00428293014044,0.999186866351,-0.00428293014044,0.000805625917502,0.00150094404127
600000000.0,0.00081059161021,0.00180110896374,0.999179669781,-0.0051395655513,0.999179669781,-0.0051395655513,0.00081059161021,0.00180110896374
700000000.0,0.000815842533544,0.00210126623065,0.999171878061,-0.00599622598406,0.999171878061,-0.00599622598406,0.000815842533544,0.00210126623065
800000000.0,0.0008214299689,0.00240141556085,0.999163439837,-0.00685291393898,0.999163439837,-0.00685291393898,0.0008214299689,0.00240141556085
900000000.0,0.000827389337926,0.00270155662983,0.999154319608,-0.00770963164109,0.999154319608,-0.00770963164109,0.000827389337926,0.00270155662983
1000000000.0,0.000833746287506,0.00300168908983,0.999144491645,-0.00856638109685,0.999144491645,-0.00856638109685,0.000833746287506,0.00300168908983
1100000000.0,0.000840520071824,0.0033018125823,0.999133936607,-0.00942316413353,0.999133936607,-0.00942316413353,0.000840520071824,0.0033018125823
1200000000.0,0.000847725567379,0.00360192674593,0.999122639526,-0.010279982428,0.999122639526,-0.010279982428,0.000847725567378,0.00360192674593
1300000000.0,0.000855374540533,0.00390203122196,0.999110588541,-0.0111368375285,0.999110588541,-0.0111368375285,0.000855374540533,0.00390203122196
1400000000.0,0.000863476480558,0.0042021256579,0.999097774064,-0.0119937308716,0.999097774064,-0.0119937308716,0.000863476480558,0.0042021256579
1500000000.0,0.000872039167203,0.00450220970999,0.999084188215,-0.0128506637955,0.999084188215,-0.0128506637955,0.000872039167203,0.00450220970999
1600000000.0,0.000881069069248,0.00480228304507,0.999069824419,-0.0137076375515,0.999069824419,-0.0137076375515,0.000881069069248,0.00480228304507
1700000000.0,0.000890571631684,0.00510234534183,0.999054677124,-0.0145646533124,0.999054677124,-0.0145646533124,0.000890571631684,0.00510234534183
1800000000.0,0.000900551487292,0.00540239629167,0.999038741587,-0.0154217121806,0.999038741587,-0.0154217121806,0.000900551487292,0.00540239629167
1900000000.0,0.000911012615529,0.00570243559928,0.999022013717,-0.0162788151944,0.999022013717,-0.0162788151944,0.000911012615529,0.00570243559928
2000000000.0,0.000921958463932,0.00600246298309,0.99900448995,-0.0171359633335,0.99900448995,-0.0171359633335,0.000921958463932,0.00600246298309
2100000000.0,0.000933392042255,0.00630247817549,0.998986167159,-0.0179931575239,0.998986167159,-0.0179931575239,0.000933392042255,0.00630247817549
2200000000.0,0.000945315996469,0.00660248092303,0.998967042579,-0.0188503986417,0.998967042579,-0.0188503986417,0.000945315996469,0.00660248092303
2300000000.0,0.00095773266764,0.00690247098637,0.998947113747,-0.0197076875174,0.998947113747,-0.0197076875174,0.00095773266764,0.00690247098637
2400000000.0,0.000970644139278,0.0072024481404,0.998926378456,-0.0205650249384,0.998926378456,-0.0205650249384,0.000970644139277,0.0072024481404
2500000000.0,0.000984052275797,0.00750241217407,0.998904834718,-0.0214224116528,0.998904834718,-0.0214224116528,0.000984052275797,0.00750241217407
2600000000.0,0.000997958754053,0.00780236289037,0.998882480728,-0.0222798483709,0.998882480728,-0.0222798483709,0.000997958754053,0.00780236289037
2700000000.0,0.00101236508939,0.00810230010613,0.998859314843,-0.0231373357686,0.998859314843,-0.0231373357686,0.00101236508939,0.00810230010613
2800000000.0,0.00102727265736,0.00840222365193,0.998835335557,-0.0239948744886,0.998835335557,-0.0239948744886,0.00102727265736,0.00840222365193
2900000000.0,0.0010426827119,0.00870213337189,0.998810541485,-0.0248524651431,0.998810541485,-0.0248524651431,0.0010426827119,0.00870213337189
3000000000.0,0.00105859640071,0.00900202912353,0.998784931348,-0.0257101083147,0.998784931348,-0.0257101083147,0.00105859640071,0.00900202912353
3100000000.0,0.00107501477829,0.00930191077752,0.998758503958,-0.0265678045589,0.998758503958,-0.0265678045589,0.00107501477829,0.00930191077752
3200000000.0,0.0010919388171,0.00960177821752,0.998731258207,-0.0274255544049,0.998731258207,-0.0274255544049,0.0010919388171,0.00960177821752
3300000000.0,0.00110936941709,0.00990163133998,0.998703193059,-0.0282833583569,0.998703193059,-0.0282833583569,0.00110936941709,0.00990163133998
3400000000.0,0.00112730741401,0.0102014700539,0.998674307543,-0.029141216896,0.998674307543,-0.029141216896,0.00112730741401,0.0102014700539
3500000000.0,0.00114575358651,0.0105012942807,0.998644600742,-0.0299991304806,0.998644600742,-0.0299991304806,0.00114575358651,0.0105012942807
3600000000.0,0.00116470866238,0.0108011039539,0.998614071791,-0.030857099548,0.998614071791,-0.030857099548,0.00116470866238,0.0108011039539
3700000000.0,0.00118417332403,0.0111008990189,0.998582719867,-0.0317151245148,0.998582719867,-0.0317151245148,0.00118417332403,0.0111008990189
3800000000.0,0.00120414821319,0.011400679433,0.998550544189,-0.0325732057785,0.998550544189,-0.0325732057785,0.00120414821319,0.011400679433
3900000000.0,0.00122463393519,0.011700445165,0.998517544012,-0.033431343718,0.998517544012,-0.033431343718,0.00122463393519,0.011700445165
4000000000.0,0.00124563106264,0.0120001961948,0.998483718622,-0.0342895386942,0.998483718622,-0.0342895386942,0.00124563106264,0.0120001961948
4100000000.0,0.00126714013871,0.0122999325137,0.998449067335,-0.0351477910511,0.998449067335,-0.0351477910511,0.00126714013871,0.0122999325137
4200000000.0,0.00128916168011,0.0125996541237,0.998413589493,-0.0360061011162,0.998413589493,-0.0360061011162,0.00128916168011,0.0125996541237
4300000000.0,0.00131169617965,0.0128993610378,0.998377284459,-0.0368644692017,0.998377284459,-0.0368644692017,0.00131169617965,0.0128993610378
4400000000.0,0.00133474410859,0.0131990532793,0.998340151621,-0.0377228956042,0.998340151621,-0.0377228956042,0.00133474410859,0.0131990532793
4500000000.0,0.00135830591876,0.0134987308818,0.998302190383,-0.0385813806062,0.998302190383,-0.0385813806062,0.00135830591876,0.0134987308818
4600000000.0,0.00138238204443,0.0137983938892,0.998263400169,-0.0394399244761,0.998263400169,-0.0394399244761,0.00138238204443,0.0137983938892
4700000000.0,0.00140697290399,0.0140980423553,0.998223780417,-0.0402985274688,0.998223780417,-0.0402985274688,0.00140697290399,0.0140980423553
4800000000.0,0.00143207890152,0.0143976763437,0.998183330579,-0.0411571898264,0.998183330579,-0.0411571898264,0.00143207890152,0.0143976763437
4900000000.0,0.00145770042815,0.0146972959276,0.998142050121,-0.0420159117784,0.998142050121,-0.0420159117784,0.00145770042815,0.0146972959276
5000000000.0,0.00148383786334,0.0149969011896,0.99809993852,-0.0428746935424,0.99809993852,-0.0428746935424,0.00148383786334,0.0149969011896
5100000000.0,0.00151049157602,0.0152964922216,0.998056995263,-0.0437335353241,0.998056995263,-0.0437335353241,0.00151049157602,0.0152964922216
5200000000.0,0.00153766192563,0.0155960691244,0.998013219848,-0.0445924373182,0.998013219848,-0.0445924373182,0.00153766192563,0.0155960691244
5300000000.0,0.00156534926309,0.015895632008,0.997968611779,-0.0454513997083,0.997968611779,-0.0454513997083,0.00156534926309,0.015895632008
5400000000.0,0.00159355393166,0.016195180991,0.997923170572,-0.0463104226677,0.997923170572,-0.0463104226677,0.00159355393166,0.016195180991
5500000000.0,0.00162227626773,0.0164947162005,0.997876895745,-0.0471695063594,0.997876895745,-0.0471695063594,0.00162227626773,0.0164947162005
5600000000.0,0.00165151660159,0.0167942377723,0.997829786826,-0.0480286509364,0.997829786826,-0.0480286509364,0.00165151660159,0.0167942377723
5700000000.0,0.00168127525805,0.0170937458502,0.997781843347,-0.0488878565424,0.997781843347,-0.0488878565424,0.00168127525805,0.0170937458502
5800000000.0,0.00171155255713,0.0173932405863,0.997733064846,-0.0497471233116,0.997733064846,-0.0497471233116,0.00171155255713,0.0173932405863
5900000000.0,0.00174234881458,0.0176927221407,0.997683450864,-0.0506064513692,0.997683450864,-0.0506064513692,0.00174234881458,0.0176927221407
6000000000.0,0.00177366434241,0.0179921906811,0.997633000948,-0.0514658408317,0.997633000948,-0.0514658408317,0.00177366434241,0.0179921906811
6100000000.0,0.00180549944944,0.0182916463832,0.997581714648,-0.0523252918073,0.997581714648,-0.0523252918073,0.00180549944944,0.0182916463832
6200000000.0,0.00183785444167,0.0185910894302,0.997529591515,-0.0531848043956,0.997529591515,-0.0531848043956,0.00183785444167,0.0185910894302
6300000000.0,0.00187072962275,0.0188905200124,0.997476631107,-0.0540443786883,0.997476631107,-0.0540443786883,0.00187072962275,0.0188905200124
6400000000.0,0.00190412529439,0.0191899383278,0.99742283298,-0.0549040147693,0.99742283298,-0.0549040147693,0.00190412529439,0.0191899383278
6500000000.0,0.00193804175668,0.0194893445812,0.997368196696,-0.055763712715,0.997368196696,-0.055763712715,0.00193804175668,0.0194893445812
6600000000.0,0.00197247930844,0.0197887389848,0.997312721815,-0.0566234725942,0.997312721815,-0.0566234725942,0.00197247930844,0.0197887389848
6700000000.0,0.00200743824755,0.0200881217572,0.997256407901,-0.0574832944686,0.997256407901,-0.0574832944686,0.00200743824755,0.0200881217572
6800000000.0,0.00204291887124,0.0203874931243,0.997199254519,-0.0583431783929,0.997199254519,-0.0583431783929,0.00204291887124,0.0203874931243
6900000000.0,0.00207892147637,0.0206868533182,0.997141261234,-0.0592031244147,0.997141261234,-0.0592031244147,0.00207892147637,0.0206868533182
7000000000.0,0.00211544635967,0.0209862025777,0.997082427613,-0.0600631325752,0.997082427613,-0.0600631325752,0.00211544635967,0.0209862025777
7100000000.0,0.00215249381802,0.021285541148,0.997022753222,-0.0609232029089,0.997022753222,-0.0609232029089,0.00215249381802,0.021285541148
7200000000.0,0.00219006414862,0.0215848692806,0.996962237628,-0.0617833354439,0.996962237628,-0.0617833354439,0.00219006414862,0.0215848692806
7300000000.0,0.00222815764925,0.0218841872331,0.996900880399,-0.0626435302021,0.996900880399,-0.0626435302021,0.00222815764925,0.0218841872331
7400000000.0,0.00226677461847,0.0221834952692,0.996838681101,-0.0635037871994,0.996838681101,-0.0635037871994,0.00226677461847,0.0221834952692
7500000000.0,0.00230591535576,0.0224827936586,0.996775639301,-0.0643641064454,0.996775639301,-0.0643641064454,0.00230591535576,0.0224827936586
7600000000.0,0.00234558016178,0.0227820826768,0.996711754567,-0.0652244879442,0.996711754567,-0.0652244879442,0.00234558016178,0.0227820826768
7700000000.0,0.00238576933843,0.0230813626048,0.996647026464,-0.0660849316942,0.996647026464,-0.0660849316942,0.00238576933843,0.0230813626048
7800000000.0,0.00242648318913,0.0233806337297,0.996581454557,-0.0669454376878,0.996581454557,-0.0669454376878,0.00242648318913,0.0233806337297
7900000000.0,0.00246772201885,0.0236798963437,0.996515038411,-0.0678060059123,0.996515038411,-0.0678060059123,0.00246772201885,0.0236798963437
8000000000.0,0.00250948613434,0.0239791507446,0.99644777759,-0.0686666363495,0.99644777759,-0.0686666363495,0.00250948613434,0.0239791507446
8100000000.0,0.00255177584423,0.0242783972354,0.996379671656,-0.0695273289759,0.996379671656,-0.0695273289759,0.00255177584423,0.0242783972354
8200000000.0,0.00259459145913,0.0245776361245,0.996310720171,-0.0703880837628,0.996310720171,-0.0703880837628,0.00259459145913,0.0245776361245
8300000000.0,0.00263793329181,0.0248768677254,0.996240922695,-0.0712489006764,0.996240922695,-0.0712489006764,0.00263793329181,0.0248768677254
8400000000.0,0.00268180165726,0.0251760923563,0.996170278788,-0.0721097796781,0.996170278788,-0.0721097796781,0.00268180165726,0.0251760923563
8500000000.0,0.00272619687282,0.0254753103408,0.996098788006,-0.0729707207241,0.996098788006,-0.0729707207241,0.00272619687282,0.0254753103408
8600000000.0,0.00277111925828,0.025774522007,0.996026449907,-0.073831723766,0.996026449907,-0.073831723766,0.00277111925828,0.025774522007
8700000000.0,0.00281656913598,0.0260737276879,0.995953264044,-0.0746927887505,0.995953264044,-0.0746927887505,0.00281656913598,0.0260737276879
8800000000.0,0.0028625468309,0.0263729277211,0.99587922997,-0.0755539156198,0.99587922997,-0.0755539156198,0.0028625468309,0.0263729277211
8900000000.0,0.00290905267074,0.0266721224488,0.995804347237,-0.0764151043113,0.995804347237,-0.0764151043113,0.00290905267074,0.0266721224488
9000000000.0,0.00295608698603,0.0269713122177,0.995728615394,-0.0772763547582,0.995728615394,-0.0772763547582,0.00295608698603,0.0269713122177
9100000000.0,0.00300365011016,0.0272704973789,0.995652033989,-0.0781376668888,0.995652033989,-0.0781376668888,0.00300365011016,0.0272704973789
9200000000.0,0.00305174237953,0.0275696782876,0.995574602568,-0.0789990406274,0.995574602568,-0.0789990406274,0.00305174237953,0.0275696782876
9300000000.0,0.00310036413353,0.0278688553036,0.995496320673,-0.0798604758938,0.995496320673,-0.0798604758938,0.00310036413353,0.0278688553036
9400000000.0,0.00314951571472,0.0281680287906,0.995417187848,-0.0807219726034,0.995417187848,-0.0807219726034,0.00314951571472,0.0281680287906
9500000000.0,0.00319919746878,0.0284671991163,0.995337203631,-0.0815835306678,0.995337203631,-0.0815835306678,0.00319919746878,0.0284671991163
9600000000.0,0.00324940974468,0.0287663666526,0.99525636756,-0.0824451499939,0.99525636756,-0.0824451499939,0.00324940974468,0.0287663666526
9700000000.0,0.00330015289464,0.0290655317751,0.995174679171,-0.083306830485,0.995174679171,-0.083306830485,0.00330015289464,0.0290655317751
9800000000.0,0.00335142727429,0.0293646948635,0.995092137997,-0.0841685720399,0.995092137997,-0.0841685720399,0.00335142727429,0.0293646948635
9900000000.0,0.00340323324265,0.0296638563008,0.995008743569,-0.0850303745536,0.995008743569,-0.0850303745536,0.00340323324265,0.0296638563008
10000000000.0,0.00345557116221,0.0299630164742,0.994924495416,-0.0858922379173,0.994924495416,-0.0858922379173,0.00345557116221,0.0299630164742
