freq (GHz),S11_real,S11_imag,S21_real,S21_imag,S12_real,S12_imag,S22_real,S22_imag
100000000.0,4.40594178743e-05,-0.000747855690742,0.999951973454,-0.000902886642587,0.999951973454,-0.000902886642587,4.40594178743e-05,-0.000747855690742
200000000.0,4.1542939293e-05,-0.00149571804802,0.99994879771,-0.00180578204662,0.99994879771,-0.00180578204662,4.1542939293e-05,-0.00149571804802
300000000.0,3.7595791035e-05,-0.0022435901622,0.999944327366,-0.00270869056525,0.999944327366,-0.00270869056525,3.75957910352e-05,-0.0022435901622
400000000.0,3.22575962348e-05,-0.00299147367081,0.999938522582,-0.00361161478661,0.999938522582,-0.00361161478661,3.22575962346e-05,-0.00299147367081
500000000.0,2.55434798655e-05,-0.00373936947318,0.999931367981,-0.00451455641841,0.999931367981,-0.00451455641841,2.55434798655e-05,-0.00373936947318
600000000.0,1.746105516e-05,-0.00448727797918,0.999922855669,-0.00541751658909,0.999922855669,-0.00541751658909,1.74610551598e-05,-0.00448727797918
700000000.0,8.01473651624e-06,-0.00523519924127,0.999912980929,-0.0063204960057,0.999912980929,-0.0063204960057,8.01473651646e-06,-0.00523519924127
800000000.0,-2.79268807424e-06,-0.00598313303061,0.999901740653,-0.00722349504504,0.999901740653,-0.00722349504504,-2.79268807402e-06,-0.00598313303061
900000000.0,-1.49593567818e-05,-0.00673107889103,0.999889132641,-0.00812651381737,0.999889132641,-0.00812651381737,-1.49593567815e-05,-0.00673107889103
1000000000.0,-2.8483979246e-05,-0.00747903617243,0.999875155256,-0.00902955220662,0.999875155256,-0.00902955220662,-2.84839792459e-05,-0.00747903617243
1100000000.0,-4.33656391503e-05,-0.0082270040593,0.99985980722,-0.0099326099038,0.99985980722,-0.0099326099038,-4.33656391503e-05,-0.0082270040593
1200000000.0,-5.96036765076e-05,-0.00897498159049,0.999843087507,-0.0108356864306,0.999843087507,-0.0108356864306,-5.96036765077e-05,-0.00897498159049
1300000000.0,-7.71976133918e-05,-0.00972296767545,0.999824995264,-0.0117387811584,0.999824995264,-0.0117387811584,-7.71976133919e-05,-0.00972296767545
1400000000.0,-9.61471050017e-05,-0.0104709611071,0.999805529767,-0.0126418933239,0.999805529767,-0.0126418933239,-9.61471050016e-05,-0.0104709611071
1500000000.0,-0.000116451906187,-0.0112189605732,0.999784690389,-0.0135450220415,0.999784690389,-0.0135450220415,-0.000116451906187,-0.0112189605732
1600000000.0,-0.000138111847821,-0.011966964664,0.999762476576,-0.0144481663137,0.999762476576,-0.0144481663137,-0.000138111847821,-0.011966964664
1700000000.0,-0.000161126819637,-0.0127149718813,0.999738887833,-0.0153513250406,0.999738887833,-0.0153513250406,-0.000161126819637,-0.0127149718813
1800000000.0,-0.000185496757516,-0.0134629806438,0.999713923709,-0.0162544970266,0.999713923709,-0.0162544970266,-0.000185496757516,-0.0134629806438
1900000000.0,-0.000211221633859,-0.0142109892931,0.999687583793,-0.0171576809878,0.999687583793,-0.0171576809878,-0.000211221633859,-0.0142109892931
2000000000.0,-0.000238301450093,-0.014958996099,0.999659867704,-0.0180608755573,0.999659867704,-0.0180608755573,-0.000238301450093,-0.014958996099
2100000000.0,-0.000266736230855,-0.015706999263,0.99963077509,-0.0189640792903,0.99963077509,-0.0189640792903,-0.000266736230855,-0.015706999263
2200000000.0,-0.000296526019311,-0.0164549969228,0.999600305619,-0.0198672906688,0.999600305619,-0.0198672906688,-0.00029652601931,-0.0164549969228
2300000000.0,-0.000327670873385,-0.017202987156,0.999568458979,-0.0207705081059,0.999568458979,-0.0207705081059,-0.000327670873385,-0.017202987156
2400000000.0,-0.000360170862676,-0.0179509679825,0.999535234876,-0.0216737299487,0.999535234876,-0.0216737299487,-0.000360170862676,-0.0179509679825
2500000000.0,-0.000394026065885,-0.0186989373677,0.999500633031,-0.0225769544821,0.999500633031,-0.0225769544821,-0.000394026065885,-0.0186989373677
2600000000.0,-0.000429236568687,-0.0194468932248,0.999464653181,-0.0234801799315,0.999464653181,-0.0234801799315,-0.000429236568686,-0.0194468932248
2700000000.0,-0.000465802461902,-0.0201948334178,0.999427295073,-0.0243834044661,0.999427295073,-0.0243834044661,-0.000465802461902,-0.0201948334178
2800000000.0,-0.000503723839953,-0.0209427557628,0.99938855847,-0.0252866262005,0.99938855847,-0.0252866262005,-0.000503723839953,-0.0209427557628
2900000000.0,-0.000543000799518,-0.0216906580306,0.999348443142,-0.0261898431978,0.999348443142,-0.0261898431978,-0.000543000799518,-0.0216906580306
3000000000.0,-0.000583633438382,-0.0224385379485,0.999306948872,-0.0270930534714,0.999306948872,-0.0270930534714,-0.000583633438382,-0.0224385379485
3100000000.0,-0.000625621854396,-0.0231863932012,0.999264075455,-0.0279962549866,0.999264075455,-0.0279962549866,-0.000625621854396,-0.0231863932012
3200000000.0,-0.000668966144601,-0.0239342214337,0.999219822694,-0.0288994456632,0.999219822694,-0.0288994456632,-0.000668966144601,-0.0239342214337
3300000000.0,-0.000713666404409,-0.0246820202518,0.999174190401,-0.0298026233767,0.999174190401,-0.0298026233767,-0.000713666404409,-0.0246820202518
3400000000.0,-0.000759722726906,-0.0254297872239,0.999127178399,-0.0307057859601,0.999127178399,-0.0307057859601,-0.000759722726906,-0.0254297872239
3500000000.0,-0.000807135202191,-0.0261775198821,0.999078786521,-0.0316089312052,0.999078786521,-0.0316089312052,-0.000807135202191,-0.0261775198821
3600000000.0,-0.000855903916798,-0.0269252157236,0.999029014608,-0.0325120568642,0.999029014608,-0.0325120568642,-0.000855903916798,-0.0269252157236
3700000000.0,-0.000906028953176,-0.0276728722119,0.998977862511,-0.033415160651,0.998977862511,-0.033415160651,-0.000906028953176,-0.0276728722119
3800000000.0,-0.000957510389188,-0.0284204867776,0.998925330089,-0.0343182402424,0.998925330089,-0.0343182402424,-0.000957510389188,-0.0284204867776
3900000000.0,-0.00101034829768,-0.0291680568199,0.998871417212,-0.0352212932795,0.998871417212,-0.0352212932795,-0.00101034829768,-0.0291680568199
4000000000.0,-0.00106454274606,-0.0299155797071,0.998816123758,-0.0361243173684,0.998816123758,-0.0361243173684,-0.00106454274606,-0.0299155797071
4100000000.0,-0.00112009379592,-0.030663052778,0.998759449614,-0.0370273100817,0.998759449614,-0.0370273100817,-0.00112009379592,-0.030663052778
4200000000.0,-0.0011770015027,-0.0314104733423,0.998701394677,-0.0379302689593,0.998701394677,-0.0379302689593,-0.0011770015027,-0.0314104733423
4300000000.0,-0.00123526591531,-0.032157838682,0.998641958852,-0.0388331915096,0.998641958852,-0.0388331915096,-0.00123526591531,-0.032157838682
4400000000.0,-0.00129488707588,-0.0329051460519,0.998581142056,-0.03973607521,0.998581142056,-0.03973607521,-0.00129488707588,-0.0329051460519
4500000000.0,-0.00135586501945,-0.0336523926804,0.998518944212,-0.0406389175084,0.998518944212,-0.0406389175084,-0.00135586501945,-0.0336523926804
4600000000.0,-0.00141819977367,-0.0343995757702,0.998455365254,-0.0415417158235,0.998455365254,-0.0415417158235,-0.00141819977367,-0.0343995757702
4700000000.0,-0.00148189135858,-0.0351466924993,0.998390405127,-0.0424444675459,0.998390405127,-0.0424444675459,-0.00148189135858,-0.0351466924993
4800000000.0,-0.00154693978634,-0.0358937400215,0.998324063783,-0.043347170039,0.998324063783,-0.043347170039,-0.00154693978634,-0.0358937400215
4900000000.0,-0.00161334506103,-0.036640715467,0.998256341186,-0.0442498206392,0.998256341186,-0.0442498206392,-0.00161334506103,-0.036640715467
5000000000.0,-0.0016811071784,-0.0373876159431,0.998187237308,-0.0451524166573,0.998187237308,-0.0451524166573,-0.0016811071784,-0.0373876159431
5100000000.0,-0.00175022612568,-0.038134438535,0.998116752132,-0.0460549553791,0.998116752132,-0.0460549553791,-0.00175022612568,-0.038134438535
5200000000.0,-0.00182070188139,-0.0388811803061,0.99804488565,-0.0469574340655,0.99804488565,-0.0469574340655,-0.00182070188139,-0.0388811803061
5300000000.0,-0.00189253441513,-0.039627838299,0.997971637865,-0.0478598499538,0.997971637865,-0.0478598499538,-0.00189253441513,-0.039627838299
5400000000.0,-0.00196572368741,-0.0403744095354,0.997897008789,-0.0487622002581,0.997897008789,-0.0487622002581,-0.00196572368741,-0.0403744095354
5500000000.0,-0.00204026964948,-0.0411208910174,0.997820998446,-0.0496644821698,0.997820998446,-0.0496644821698,-0.00204026964948,-0.0411208910174
5600000000.0,-0.00211617224318,-0.0418672797275,0.997743606868,-0.0505666928584,0.997743606868,-0.0505666928584,-0.00211617224318,-0.0418672797275
5700000000.0,-0.00219343140074,-0.0426135726294,0.9976648341,-0.0514688294719,0.9976648341,-0.0514688294719,-0.00219343140074,-0.0426135726294
5800000000.0,-0.00227204704467,-0.0433597666682,0.997584680196,-0.0523708891375,0.997584680196,-0.0523708891375,-0.00227204704467,-0.0433597666682
5900000000.0,-0.00235201908761,-0.0441058587713,0.99750314522,-0.053272868962,0.99750314522,-0.053272868962,-0.00235201908761,-0.0441058587713
6000000000.0,-0.00243334743215,-0.0448518458486,0.997420229247,-0.0541747660325,0.997420229247,-0.0541747660325,-0.00243334743215,-0.0448518458486
6100000000.0,-0.00251603197076,-0.0455977247927,0.997335932365,-0.0550765774167,0.997335932365,-0.0550765774167,-0.00251603197076,-0.0455977247927
6200000000.0,-0.00260007258559,-0.0463434924801,0.997250254669,-0.0559783001634,0.997250254669,-0.0559783001634,-0.00260007258559,-0.0463434924801
6300000000.0,-0.00268546914843,-0.0470891457708,0.997163196268,-0.0568799313035,0.997163196268,-0.0568799313035,-0.00268546914843,-0.0470891457708
6400000000.0,-0.00277222152049,-0.0478346815094,0.997074757281,-0.0577814678496,0.997074757281,-0.0577814678496,-0.00277222152049,-0.0478346815094
6500000000.0,-0.00286032955238,-0.0485800965249,0.996984937838,-0.0586829067973,0.996984937838,-0.0586829067973,-0.00286032955238,-0.0485800965249
6600000000.0,-0.00294979308391,-0.0493253876317,0.99689373808,-0.059584245125,0.99689373808,-0.059584245125,-0.00294979308391,-0.0493253876317
6700000000.0,-0.00304061194409,-0.0500705516296,0.996801158158,-0.0604854797947,0.996801158158,-0.0604854797947,-0.00304061194409,-0.0500705516296
6800000000.0,-0.00313278595092,-0.0508155853043,0.996707198238,-0.0613866077523,0.996707198238,-0.0613866077523,-0.00313278595092,-0.0508155853043
6900000000.0,-0.00322631491133,-0.0515604854276,0.996611858494,-0.0622876259282,0.996611858494,-0.0622876259282,-0.00322631491133,-0.0515604854276
7000000000.0,-0.00332119862113,-0.0523052487583,0.996515139113,-0.0631885312374,0.996515139113,-0.0631885312374,-0.00332119862113,-0.0523052487583
7100000000.0,-0.00341743686484,-0.0530498720418,0.996417040292,-0.0640893205801,0.996417040292,-0.0640893205801,-0.00341743686484,-0.0530498720418
7200000000.0,-0.00351502941565,-0.0537943520112,0.996317562242,-0.0649899908419,0.996317562242,-0.0649899908419,-0.00351502941565,-0.0537943520112
7300000000.0,-0.00361397603532,-0.054538685387,0.996216705183,-0.0658905388947,0.996216705183,-0.0658905388947,-0.00361397603532,-0.054538685387
7400000000.0,-0.00371427647411,-0.0552828688779,0.99611446935,-0.0667909615963,0.99611446935,-0.0667909615963,-0.00371427647411,-0.0552828688779
7500000000.0,-0.00381593047065,-0.056026899181,0.996010854986,-0.0676912557913,0.996010854986,-0.0676912557913,-0.00381593047065,-0.056026899181
7600000000.0,-0.00391893775194,-0.0567707729818,0.995905862349,-0.0685914183115,0.995905862349,-0.0685914183115,-0.00391893775194,-0.0567707729818
7700000000.0,-0.00402329803321,-0.0575144869552,0.995799491707,-0.0694914459757,0.995799491707,-0.0694914459757,-0.00402329803321,-0.0575144869552
7800000000.0,-0.00412901101787,-0.0582580377651,0.99569174334,-0.0703913355907,0.99569174334,-0.0703913355907,-0.00412901101787,-0.0582580377651
7900000000.0,-0.00423607639746,-0.0590014220651,0.995582617543,-0.0712910839512,0.995582617543,-0.0712910839512,-0.00423607639746,-0.0590014220651
8000000000.0,-0.00434449385155,-0.0597446364987,0.995472114618,-0.0721906878404,0.995472114618,-0.0721906878404,-0.00434449385155,-0.0597446364987
8100000000.0,-0.00445426304768,-0.0604876776998,0.995360234884,-0.0730901440301,0.995360234884,-0.0730901440301,-0.00445426304768,-0.0604876776998
8200000000.0,-0.00456538364133,-0.0612305422926,0.995246978669,-0.0739894492811,0.995246978669,-0.0739894492811,-0.00456538364133,-0.0612305422926
8300000000.0,-0.00467785527581,-0.061973226892,0.995132346314,-0.0748886003436,0.995132346314,-0.0748886003436,-0.00467785527581,-0.061973226892
8400000000.0,-0.00479167758226,-0.0627157281042,0.995016338174,-0.0757875939574,0.995016338174,-0.0757875939574,-0.00479167758226,-0.0627157281042
8500000000.0,-0.00490685017953,-0.0634580425265,0.994898954615,-0.0766864268522,0.994898954615,-0.0766864268522,-0.00490685017953,-0.0634580425265
8600000000.0,-0.00502337267417,-0.0642001667481,0.994780196013,-0.0775850957479,0.994780196013,-0.0775850957479,-0.00502337267417,-0.0642001667481
8700000000.0,-0.00514124466038,-0.0649420973499,0.994660062762,-0.0784835973551,0.994660062762,-0.0784835973551,-0.00514124466038,-0.0649420973499
8800000000.0,-0.00526046571993,-0.0656838309048,0.994538555263,-0.0793819283749,0.994538555263,-0.0793819283749,-0.00526046571993,-0.0656838309048
8900000000.0,-0.00538103542214,-0.0664253639783,0.994415673933,-0.0802800854999,0.994415673933,-0.0802800854999,-0.00538103542213,-0.0664253639783
9000000000.0,-0.0055029533238,-0.0671666931284,0.994291419199,-0.0811780654136,0.994291419199,-0.0811780654136,-0.0055029533238,-0.0671666931284
9100000000.0,-0.00562621896919,-0.0679078149061,0.994165791504,-0.0820758647914,0.994165791504,-0.0820758647914,-0.00562621896919,-0.0679078149061
9200000000.0,-0.00575083188996,-0.0686487258555,0.9940387913,-0.0829734803005,0.9940387913,-0.0829734803005,-0.00575083188996,-0.0686487258555
9300000000.0,-0.00587679160514,-0.069389422514,0.993910419055,-0.0838709086005,0.993910419055,-0.0838709086005,-0.00587679160514,-0.069389422514
9400000000.0,-0.00600409762108,-0.0701299014127,0.993780675246,-0.0847681463429,0.993780675246,-0.0847681463429,-0.00600409762108,-0.0701299014127
9500000000.0,-0.00613274943144,-0.0708701590765,0.993649560365,-0.0856651901723,0.993649560365,-0.0856651901723,-0.00613274943144,-0.0708701590765
9600000000.0,-0.00626274651711,-0.0716101920244,0.993517074918,-0.0865620367262,0.993517074918,-0.0865620367262,-0.00626274651711,-0.0716101920244
9700000000.0,-0.00639408834622,-0.0723499967696,0.993383219421,-0.087458682635,0.993383219421,-0.087458682635,-0.00639408834622,-0.0723499967696
9800000000.0,-0.00652677437407,-0.0730895698199,0.993247994404,-0.0883551245228,0.993247994404,-0.0883551245228,-0.00652677437407,-0.0730895698199
9900000000.0,-0.00666080404314,-0.073828907678,0.99311140041,-0.089251359007,0.99311140041,-0.089251359007,-0.00666080404314,-0.073828907678
10000000000.0,-0.00679617678302,-0.0745680068412,0.992973437996,-0.0901473826993,0.992973437996,-0.0901473826993,-0.00679617678302,-0.0745680068412
