freq (GHz),S11_real,S11_imag,S21_real,S21_imag,S12_real,S12_imag,S22_real,S22_imag
100000000.0,0.000886066960257,7.70061186574e-05,0.99910869898,-0.00219009772905,0.99910869898,-0.00219009772905,0.000886066960257,7.70061186572e-05
200000000.0,0.000891521408639,0.00015397634374,0.999094543726,-0.00438019141515,0.999094543726,-0.00438019141515,0.000891521408638,0.00015397634374
300000000.0,0.000895757291606,0.000230913987153,0.999077139831,-0.00657030044573,0.999077139831,-0.00657030044573,0.000895757291606,0.000230913987153
400000000.0,0.000899542917926,0.000307816866093,0.999055718388,-0.0087604327856,0.999055718388,-0.0087604327856,0.000899542917925,0.000307816866093
500000000.0,0.00090317370432,0.000384681969626,0.999029983277,-0.010950592552,0.999029983277,-0.010950592552,0.00090317370432,0.000384681969626
600000000.0,0.000906800014561,0.000461506110801,0.998999783338,-0.0131407816927,0.998999783338,-0.0131407816927,0.000906800014561,0.000461506110801
700000000.0,0.000910510452508,0.000538286120413,0.998965029091,-0.0153310007043,0.998965029091,-0.0153310007043,0.000910510452508,0.000538286120413
800000000.0,0.000914362245686,0.000615018917327,0.998925662364,-0.0175212490186,0.998925662364,-0.0175212490186,0.000914362245686,0.000615018917327
900000000.0,0.000918394767044,0.00069170153564,0.998881642778,-0.0197115252388,0.998881642778,-0.0197115252388,0.000918394767044,0.00069170153564
1000000000.0,0.000922636385813,0.000768331134128,0.998832940899,-0.0219018272962,0.998832940899,-0.0219018272962,0.000922636385813,0.000768331134128
1100000000.0,0.000927108274261,0.000844904997765,0.998779534446,-0.0240921525617,0.998779534446,-0.0240921525617,0.00092710827426,0.000844904997765
1200000000.0,0.000931826675249,0.000921420535581,0.998721406017,-0.026282497927,0.998721406017,-0.026282497927,0.000931826675249,0.000921420535581
1300000000.0,0.000936804328467,0.00099787527689,0.998658541675,-0.0284728598679,0.998658541675,-0.0284728598679,0.000936804328467,0.00099787527689
1400000000.0,0.000942051407677,0.00107426686685,0.998590930014,-0.0306632344932,0.998590930014,-0.0306632344932,0.000942051407677,0.00107426686685
1500000000.0,0.000947576159302,0.00115059306168,0.998518561519,-0.0328536175844,0.998518561519,-0.0328536175844,0.000947576159302,0.00115059306168
1600000000.0,0.000953385350934,0.00122685172405,0.998441428127,-0.035044004628,0.998441428127,-0.035044004628,0.000953385350933,0.00122685172405
1700000000.0,0.000959484594556,0.00130304081856,0.998359522901,-0.037234390843,0.998359522901,-0.037234390843,0.000959484594556,0.00130304081856
1800000000.0,0.000965878584767,0.00137915840736,0.998272839801,-0.0394247712033,0.998272839801,-0.0394247712033,0.000965878584767,0.00137915840736
1900000000.0,0.000972571277788,0.00145520264616,0.9981813735,-0.0416151404577,0.9981813735,-0.0416151404577,0.000972571277788,0.00145520264616
2000000000.0,0.000979566028306,0.00153117178034,0.998085119256,-0.0438054931463,0.998085119256,-0.0438054931463,0.000979566028306,0.00153117178034
2100000000.0,0.000986865695689,0.00160706414136,0.997984072806,-0.0459958236155,0.997984072806,-0.0459958236155,0.000986865695689,0.00160706414136
2200000000.0,0.000994472727562,0.00168287814336,0.997878230282,-0.0481861260308,0.997878230282,-0.0481861260308,0.000994472727562,0.00168287814336
2300000000.0,0.00100238922638,0.00175861227997,0.99776758815,-0.0503763943885,0.99776758815,-0.0503763943885,0.00100238922638,0.00175861227997
2400000000.0,0.00101061700302,0.0018342651213,0.997652143156,-0.0525666225255,0.997652143156,-0.0525666225255,0.00101061700302,0.0018342651213
2500000000.0,0.00101915762045,0.00190983531114,0.997531892285,-0.0547568041288,0.997531892285,-0.0547568041288,0.00101915762045,0.00190983531114
2600000000.0,0.00102801242951,0.00198532156425,0.997406832727,-0.0569469327436,0.997406832727,-0.0569469327436,0.00102801242952,0.00198532156425
2700000000.0,0.00103718259862,0.00206072266388,0.997276961848,-0.0591370017807,0.997276961848,-0.0591370017807,0.00103718259862,0.00206072266388
2800000000.0,0.00104666913851,0.00213603745934,0.99714227717,-0.0613270045233,0.99714227717,-0.0613270045233,0.0010466691385,0.00213603745934
2900000000.0,0.00105647292305,0.00221126486376,0.997002776344,-0.0635169341332,0.997002776344,-0.0635169341332,0.00105647292305,0.00221126486376
3000000000.0,0.00106659470694,0.00228640385196,0.996858457145,-0.0657067836568,0.996858457145,-0.0657067836568,0.00106659470694,0.00228640385196
3100000000.0,0.00107703514063,0.00236145345837,0.996709317447,-0.0678965460298,0.996709317447,-0.0678965460298,0.00107703514063,0.00236145345837
3200000000.0,0.00108779478327,0.00243641277507,0.996555355219,-0.0700862140823,0.996555355219,-0.0700862140823,0.00108779478327,0.00243641277507
3300000000.0,0.00109887411377,0.00251128095001,0.996396568512,-0.0722757805433,0.996396568512,-0.0722757805433,0.00109887411377,0.00251128095001
3400000000.0,0.0011102735404,0.00258605718513,0.996232955452,-0.0744652380449,0.996232955452,-0.0744652380449,0.0011102735404,0.00258605718514
3500000000.0,0.00112199340917,0.00266074073478,0.996064514232,-0.0766545791259,0.996064514232,-0.0766545791259,0.00112199340917,0.00266074073478
3600000000.0,0.00113403401113,0.00273533090398,0.995891243103,-0.0788437962356,0.995891243103,-0.0788437962356,0.00113403401113,0.00273533090398
3700000000.0,0.00114639558879,0.00280982704694,0.995713140375,-0.0810328817371,0.995713140375,-0.0810328817371,0.00114639558879,0.00280982704694
3800000000.0,0.0011590783418,0.00288422856553,0.995530204406,-0.0832218279107,0.995530204406,-0.0832218279107,0.0011590783418,0.00288422856553
3900000000.0,0.00117208243193,0.00295853490787,0.995342433603,-0.0854106269563,0.995342433603,-0.0854106269563,0.00117208243193,0.00295853490787
4000000000.0,0.00118540798759,0.00303274556692,0.995149826414,-0.0875992709968,0.995149826414,-0.0875992709968,0.00118540798759,0.00303274556692
4100000000.0,0.00119905510773,0.00310686007917,0.994952381328,-0.0897877520804,0.994952381328,-0.0897877520804,0.00119905510773,0.00310686007917
4200000000.0,0.00121302386547,0.00318087802332,0.99475009687,-0.0919760621831,0.99475009687,-0.0919760621831,0.00121302386547,0.00318087802332
4300000000.0,0.00122731431122,0.0032547990191,0.994542971602,-0.094164193211,0.994542971602,-0.094164193211,0.00122731431122,0.0032547990191
4400000000.0,0.00124192647562,0.00332862272603,0.994331004118,-0.096352137003,0.994331004118,-0.096352137003,0.00124192647562,0.00332862272603
4500000000.0,0.00125686037213,0.00340234884227,0.994114193041,-0.098539885332,0.994114193041,-0.098539885332,0.00125686037213,0.00340234884227
4600000000.0,0.00127211599932,0.00347597710353,0.993892537027,-0.100727429908,0.993892537027,-0.100727429908,0.00127211599932,0.00347597710353
4700000000.0,0.0012876933431,0.00354950728195,0.993666034757,-0.102914762378,0.993666034757,-0.102914762378,0.0012876933431,0.00354950728195
4800000000.0,0.0013035923786,0.00362293918507,0.993434684939,-0.105101874332,0.993434684939,-0.105101874332,0.0013035923786,0.00362293918507
4900000000.0,0.00131981307196,0.00369627265484,0.99319848631,-0.107288757298,0.99319848631,-0.107288757298,0.00131981307196,0.00369627265484
5000000000.0,0.00133635538198,0.00376950756658,0.992957437626,-0.109475402752,0.992957437626,-0.109475402752,0.00133635538198,0.00376950756658
5100000000.0,0.00135321926158,0.00384264382806,0.992711537672,-0.111661802112,0.992711537672,-0.111661802112,0.00135321926158,0.00384264382806
5200000000.0,0.00137040465919,0.00391568137859,0.992460785252,-0.113847946743,0.992460785252,-0.113847946743,0.00137040465919,0.00391568137859
5300000000.0,0.00138791151999,0.00398862018806,0.992205179196,-0.116033827959,0.992205179196,-0.116033827959,0.00138791151999,0.00398862018806
5400000000.0,0.0014057397871,0.00406146025611,0.991944718352,-0.118219437024,0.991944718352,-0.118219437024,0.0014057397871,0.00406146025611
5500000000.0,0.00142388940264,0.00413420161125,0.991679401592,-0.120404765151,0.991679401592,-0.120404765151,0.00142388940264,0.00413420161125
5600000000.0,0.00144236030871,0.00420684431006,0.991409227808,-0.122589803506,0.991409227808,-0.122589803506,0.00144236030871,0.00420684431006
5700000000.0,0.00146115244835,0.00427938843633,0.991134195911,-0.124774543208,0.991134195911,-0.124774543208,0.00146115244835,0.00427938843633
5800000000.0,0.00148026576636,0.00435183410033,0.990854304835,-0.126958975331,0.990854304835,-0.126958975331,0.00148026576636,0.00435183410033
5900000000.0,0.00149970021014,0.004424181438,0.99056955353,-0.129143090904,0.99056955353,-0.129143090904,0.00149970021014,0.004424181438
6000000000.0,0.00151945573039,0.0044964306102,0.990279940968,-0.131326880912,0.990279940968,-0.131326880912,0.00151945573039,0.0044964306102
6100000000.0,0.00153953228183,0.00456858180202,0.98998546614,-0.133510336298,0.98998546614,-0.133510336298,0.00153953228184,0.00456858180202
6200000000.0,0.00155992982386,0.004640635222,0.989686128054,-0.135693447965,0.989686128054,-0.135693447965,0.00155992982386,0.004640635222
6300000000.0,0.00158064832113,0.0047125911015,0.989381925739,-0.137876206774,0.989381925739,-0.137876206774,0.00158064832113,0.0047125911015
6400000000.0,0.00160168774412,0.00478444969397,0.989072858242,-0.140058603547,0.989072858242,-0.140058603547,0.00160168774412,0.00478444969397
6500000000.0,0.00162304806973,0.0048562112743,0.988758924628,-0.142240629067,0.988758924628,-0.142240629067,0.00162304806973,0.0048562112743
6600000000.0,0.00164472928168,0.00492787613818,0.98844012398,-0.144422274079,0.98844012398,-0.144422274079,0.00164472928168,0.00492787613818
6700000000.0,0.00166673137106,0.00499944460144,0.988116455401,-0.146603529292,0.988116455401,-0.146603529292,0.00166673137106,0.00499944460144
6800000000.0,0.00168905433673,0.00507091699946,0.987787918011,-0.14878438538,0.987787918011,-0.14878438538,0.00168905433673,0.00507091699946
6900000000.0,0.00171169818578,0.00514229368653,0.987454510948,-0.150964832978,0.987454510948,-0.150964832978,0.00171169818578,0.00514229368653
7000000000.0,0.00173466293387,0.00521357503524,0.987116233369,-0.153144862689,0.987116233369,-0.153144862689,0.00173466293387,0.00521357503524
7100000000.0,0.00175794860562,0.00528476143595,0.986773084448,-0.155324465082,0.986773084448,-0.155324465082,0.00175794860562,0.00528476143595
7200000000.0,0.00178155523499,0.00535585329618,0.986425063378,-0.157503630693,0.986425063378,-0.157503630693,0.00178155523499,0.00535585329618
7300000000.0,0.00180548286554,0.00542685104005,0.98607216937,-0.159682350024,0.98607216937,-0.159682350024,0.00180548286554,0.00542685104005
7400000000.0,0.00182973155083,0.00549775510771,0.985714401653,-0.161860613547,0.985714401653,-0.161860613547,0.00182973155083,0.00549775510771
7500000000.0,0.00185430135462,0.00556856595486,0.985351759474,-0.164038411701,0.985351759474,-0.164038411701,0.00185430135462,0.00556856595486
7600000000.0,0.00187919235124,0.00563928405217,0.984984242097,-0.166215734896,0.984984242097,-0.166215734896,0.00187919235124,0.00563928405217
7700000000.0,0.00190440462578,0.00570990988477,0.984611848806,-0.168392573511,0.984611848806,-0.168392573511,0.00190440462578,0.00570990988477
7800000000.0,0.00192993827438,0.00578044395174,0.984234578901,-0.170568917895,0.984234578901,-0.170568917895,0.00192993827438,0.00578044395174
7900000000.0,0.00195579340443,0.00585088676562,0.983852431704,-0.172744758371,0.983852431704,-0.172744758371,0.00195579340443,0.00585088676562
8000000000.0,0.00198197013484,0.00592123885193,0.98346540655,-0.174920085231,0.98346540655,-0.174920085231,0.00198197013484,0.00592123885193
8100000000.0,0.00200846859623,0.00599150074863,0.983073502795,-0.177094888739,0.983073502795,-0.177094888739,0.00200846859623,0.00599150074863
8200000000.0,0.00203528893109,0.00606167300573,0.982676719815,-0.179269159133,0.982676719815,-0.179269159133,0.00203528893109,0.00606167300573
8300000000.0,0.00206243129403,0.00613175618475,0.982275057001,-0.181442886625,0.982275057001,-0.181442886625,0.00206243129403,0.00613175618475
8400000000.0,0.00208989585195,0.0062017508583,0.981868513763,-0.183616061399,0.981868513763,-0.183616061399,0.00208989585195,0.0062017508583
8500000000.0,0.00211768278415,0.00627165760961,0.981457089532,-0.185788673613,0.981457089532,-0.185788673613,0.00211768278415,0.00627165760961
8600000000.0,0.00214579228257,0.00634147703213,0.981040783755,-0.187960713401,0.981040783755,-0.187960713401,0.00214579228257,0.00634147703213
8700000000.0,0.00217422455189,0.00641120972901,0.980619595897,-0.190132170873,0.980619595897,-0.190132170873,0.00217422455189,0.00641120972901
8800000000.0,0.00220297980969,0.00648085631278,0.980193525444,-0.19230303611,0.980193525444,-0.19230303611,0.00220297980969,0.00648085631278
8900000000.0,0.00223205828658,0.00655041740483,0.979762571899,-0.194473299175,0.979762571899,-0.194473299175,0.00223205828658,0.00655041740483
9000000000.0,0.00226146022633,0.00661989363505,0.979326734784,-0.196642950103,0.979326734784,-0.196642950103,0.00226146022633,0.00661989363505
9100000000.0,0.00229118588601,0.00668928564141,0.97888601364,-0.198811978907,0.97888601364,-0.198811978907,0.00229118588601,0.00668928564141
9200000000.0,0.00232123553607,0.00675859406956,0.978440408027,-0.200980375577,0.978440408027,-0.200980375577,0.00232123553607,0.00675859406956
9300000000.0,0.00235160946046,0.0068278195724,0.977989917524,-0.203148130081,0.977989917524,-0.203148130081,0.00235160946046,0.0068278195724
9400000000.0,0.00238230795674,0.00689696280975,0.977534541727,-0.205315232366,0.977534541727,-0.205315232366,0.00238230795674,0.00689696280975
9500000000.0,0.00241333133619,0.00696602444792,0.977074280254,-0.207481672353,0.977074280254,-0.207481672353,0.00241333133619,0.00696602444792
9600000000.0,0.00244467992385,0.00703500515934,0.97660913274,-0.209647439947,0.97660913274,-0.209647439947,0.00244467992385,0.00703500515934
9700000000.0,0.00247635405865,0.00710390562219,0.976139098841,-0.211812525028,0.976139098841,-0.211812525028,0.00247635405865,0.00710390562219
9800000000.0,0.00250835409345,0.00717272652003,0.975664178229,-0.213976917458,0.975664178229,-0.213976917458,0.00250835409345,0.00717272652003
9900000000.0,0.00254068039517,0.00724146854144,0.975184370599,-0.216140607075,0.975184370599,-0.216140607075,0.00254068039517,0.00724146854144
10000000000.0,0.00257333334479,0.00731013237966,0.974699675664,-0.2183035837,0.974699675664,-0.2183035837,0.00257333334479,0.00731013237966
