freq (GHz),S11_real,S11_imag,S21_real,S21_imag,S12_real,S12_imag,S22_real,S22_imag
100000000.0,-0.00690415985909,-0.0824051707803,0.993038366389,-0.0825448671023,0.993038366389,-0.0825448671023,-0.00690415985909,-0.0824051707803
200000000.0,-0.0269765047407,-0.161460005735,0.972965598818,-0.161739416744,0.972965598818,-0.161739416744,-0.0269765047407,-0.161460005735
300000000.0,-0.0586315468425,-0.234279253486,0.941310212852,-0.2346984078,0.941310212852,-0.2346984078,-0.0586315468425,-0.234279253486
400000000.0,-0.0996044332953,-0.298731576735,0.900337011965,-0.299290511152,0.900337011965,-0.299290511152,-0.0996044332953,-0.298731576735
500000000.0,-0.14729411855,-0.353578493953,0.852647022774,-0.354277252384,0.852647022774,-0.354277252384,-0.14729411855,-0.353578493953
600000000.0,-0.199115934154,-0.398437737711,0.800824904115,-0.399276370454,0.800824904115,-0.399276370454,-0.199115934154,-0.398437737711
700000000.0,-0.252764077895,-0.433623415925,0.747176452534,-0.434601979125,0.747176452534,-0.434601979125,-0.252764077895,-0.433623415925
800000000.0,-0.306358551352,-0.459932303988,0.69358166279,-0.461050859196,0.69358166279,-0.461050859196,-0.306358551352,-0.459932303988
900000000.0,-0.358488719561,-0.478434338525,0.641451167321,-0.479692952333,0.641451167321,-0.479692952333,-0.358488719561,-0.478434338525
1000000000.0,-0.408184493633,-0.490301629849,0.591755053184,-0.491700373573,0.591755053184,-0.491700373573,-0.408184493633,-0.490301629849
1100000000.0,-0.45484828765,-0.496687740299,0.545090904919,-0.4982266897,0.545090904919,-0.4982266897,-0.45484828765,-0.496687740299
1200000000.0,-0.498173795466,-0.498654037405,0.501765027604,-0.50033327244,0.501765027604,-0.50033327244,-0.498173795466,-0.498654037405
1300000000.0,-0.538068026956,-0.497133008868,0.461870410511,-0.498952613465,0.461870410511,-0.498952613465,-0.538068026956,-0.497133008868
1400000000.0,-0.574584790322,-0.492917110871,0.42535324475,-0.494877172722,0.42535324475,-0.494877172722,-0.574584790322,-0.492917110871
1500000000.0,-0.607872180567,-0.486663299564,0.392065434742,-0.488763909936,0.392065434742,-0.488763909936,-0.607872180567,-0.486663299564
1600000000.0,-0.63813345425,-0.478905925547,0.361803723447,-0.481147179106,0.361803723447,-0.481147179106,-0.63813345425,-0.478905925547
1700000000.0,-0.665599242305,-0.470073102276,0.334337479518,-0.472455096927,0.334337479518,-0.472455096927,-0.665599242305,-0.470073102276
1800000000.0,-0.690508678758,-0.460503580343,0.309427568572,-0.463026417076,0.309427568572,-0.463026417076,-0.690508678758,-0.460503580343
1900000000.0,-0.713097186382,-0.450462511525,0.286838567524,-0.453126294277,0.286838567524,-0.453126294277,-0.713097186382,-0.450462511525
2000000000.0,-0.733589038108,-0.440155359573,0.266346203162,-0.442960195095,0.266346203162,-0.442960195095,-0.733589038108,-0.440155359573
2100000000.0,-0.752193230255,-0.429739736529,0.247741478921,-0.432685734259,0.247741478921,-0.432685734259,-0.752193230255,-0.429739736529
2200000000.0,-0.769101579297,-0.41933522911,0.2308325781,-0.422422501062,0.2308325781,-0.422422501062,-0.769101579297,-0.41933522911
2300000000.0,-0.784488260146,-0.409031417471,0.215445325583,-0.412260078123,0.215445325583,-0.412260078123,-0.784488260146,-0.409031417471
2400000000.0,-0.798510239109,-0.398894339088,0.201422754875,-0.402264505279,0.201422754875,-0.402264505279,-0.798510239109,-0.398894339088
2500000000.0,-0.811308228236,-0.388971653253,0.18862415375,-0.39248344409,0.18862415375,-0.39248344409,-0.811308228236,-0.388971653253
2600000000.0,-0.823007912304,-0.379296740666,0.176923837271,-0.382950277431,0.176923837271,-0.382950277431,-0.823007912304,-0.379296740666
2700000000.0,-0.83372128689,-0.369891942086,0.166209809705,-0.373687348153,0.166209809705,-0.373687348153,-0.83372128689,-0.369891942086
2800000000.0,-0.843548006114,-0.360771107555,0.15638241679,-0.364708508308,0.15638241679,-0.364708508308,-0.843548006114,-0.360771107555
2900000000.0,-0.852576679175,-0.351941597266,0.14735304919,-0.356021120028,0.14735304919,-0.356021120028,-0.852576679175,-0.351941597266
3000000000.0,-0.860886081805,-0.343405848364,0.139042931041,-0.347627622322,0.139042931041,-0.347627622322,-0.860886081805,-0.343405848364
3100000000.0,-0.868546266275,-0.33516259929,0.131382009947,-0.339526755434,0.131382009947,-0.339526755434,-0.868546266275,-0.33516259929
3200000000.0,-0.875619564733,-0.327207844585,0.124307953641,-0.331714515643,0.124307953641,-0.331714515643,-0.875619564733,-0.327207844585
3300000000.0,-0.882161487434,-0.319535577857,0.117765251753,-0.32418489824,0.117765251753,-0.32418489824,-0.882161487434,-0.319535577857
3400000000.0,-0.888221521385,-0.312138368468,0.11170441716,-0.316930474215,0.11170441716,-0.316930474215,-0.888221521385,-0.312138368468
3500000000.0,-0.893843836988,-0.30500780778,0.106081279354,-0.309942836508,0.106081279354,-0.309942836508,-0.893843836988,-0.30500780778
3600000000.0,-0.899067911135,-0.298134853143,0.100856361334,-0.303212944,0.100856361334,-0.303212944,-0.899067911135,-0.298134853143
3700000000.0,-0.903929075367,-0.291510091758,0.0959943314542,-0.296731385379,0.0959943314542,-0.296731385379,-0.903929075367,-0.291510091758
3800000000.0,-0.908458997391,-0.285123941792,0.0914635219067,-0.290488580261,0.0914635219067,-0.290488580261,-0.908458997391,-0.285123941792
3900000000.0,-0.912686103688,-0.278966804402,0.0872355061096,-0.284474931214,0.0872355061096,-0.284474931214,-0.912686103688,-0.278966804402
4000000000.0,-0.916635950309,-0.273029177371,0.083284727912,-0.278680937395,0.083284727912,-0.278680937395,-0.916635950309,-0.273029177371
4100000000.0,-0.920331548224,-0.267301738789,0.079588176247,-0.273097278239,0.079588176247,-0.273097278239,-0.920331548224,-0.267301738789
4200000000.0,-0.923793648893,-0.261775407389,0.076125099557,-0.267714873795,0.076125099557,-0.267714873795,-0.923793648893,-0.261775407389
4300000000.0,-0.927040995089,-0.256441384744,0.0728767549738,-0.262524926924,0.0728767549738,-0.262524926924,-0.927040995089,-0.256441384744
4400000000.0,-0.930090541369,-0.25129118341,0.0698261878461,-0.257518951446,0.0698261878461,-0.257518951446,-0.930090541369,-0.25129118341
4500000000.0,-0.932957648057,-0.246316644241,0.0669580377553,-0.252688789457,0.0669580377553,-0.252688789457,-0.932957648057,-0.246316644241
4600000000.0,-0.935656252109,-0.241509945395,0.0642583676514,-0.248026620338,0.0642583676514,-0.248026620338,-0.935656252109,-0.241509945395
4700000000.0,-0.93819901779,-0.236863605025,0.0617145131761,-0.243524963446,0.0617145131761,-0.243524963446,-0.93819901779,-0.236863605025
4800000000.0,-0.940597469716,-0.232370479211,0.0593149496218,-0.239176676049,0.0593149496218,-0.239176676049,-0.940597469716,-0.232370479211
4900000000.0,-0.942862110475,-0.22802375636,0.0570491743072,-0.234974947731,0.0570491743072,-0.234974947731,-0.942862110475,-0.22802375636
5000000000.0,-0.945002524763,-0.223816949036,0.0549076024438,-0.230913292216,0.0549076024438,-0.230913292216,-0.945002524763,-0.223816949036
5100000000.0,-0.947027471701,-0.219743883955,0.0528814748186,-0.226985537373,0.0528814748186,-0.226985537373,-0.947027471701,-0.219743883955
5200000000.0,-0.948944966791,-0.215798690744,0.0509627758367,-0.223185813971,0.0509627758367,-0.223185813971,-0.948944966791,-0.215798690744
5300000000.0,-0.95076235478,-0.211975789904,0.0491441606602,-0.219508543648,0.0491441606602,-0.219508543648,-0.95076235478,-0.211975789904
5400000000.0,-0.952486374524,-0.20826988033,0.0474188903401,-0.215948426426,0.0474188903401,-0.215948426426,-0.952486374524,-0.20826988033
5500000000.0,-0.954123216821,-0.204675926651,0.0457807739842,-0.212500428061,0.0457807739842,-0.212500428061,-0.954123216821,-0.204675926651
5600000000.0,-0.955678576049,-0.2011891466,0.0442241171248,-0.209159767406,0.0442241171248,-0.209159767406,-0.955678576049,-0.2011891466
5700000000.0,-0.957157696319,-0.197804998548,0.0427436755555,-0.205921903952,0.0427436755555,-0.205921903952,-0.957157696319,-0.197804998548
5800000000.0,-0.958565412811,-0.194519169336,0.0413346140028,-0.202782525661,0.0413346140028,-0.202782525661,-0.958565412811,-0.194519169336
5900000000.0,-0.959906188827,-0.191327562468,0.0399924690731,-0.199737537152,0.0399924690731,-0.199737537152,-0.959906188827,-0.191327562468
6000000000.0,-0.961184149049,-0.188226286717,0.0387131159881,-0.196783048321,0.0387131159881,-0.196783048321,-0.961184149049,-0.188226286717
6100000000.0,-0.96240310945,-0.185211645204,0.0374927386823,-0.19391536341,0.0374927386823,-0.19391536341,-0.96240310945,-0.185211645204
6200000000.0,-0.963566604203,-0.182280124938,0.0363278028853,-0.191130970555,0.0363278028853,-0.191130970555,-0.963566604203,-0.182280124938
6300000000.0,-0.964677909951,-0.179428386859,0.0352150318604,-0.188426531825,0.0352150318604,-0.188426531825,-0.964677909951,-0.179428386859
6400000000.0,-0.965740067695,-0.176653256357,0.0341513845097,-0.185798873746,0.0341513845097,-0.185798873746,-0.965740067695,-0.176653256357
6500000000.0,-0.966755902584,-0.173951714287,0.0331340355887,-0.183244978314,0.0331340355887,-0.183244978314,-0.966755902584,-0.173951714287
6600000000.0,-0.96772804181,-0.171320888448,0.0321603578051,-0.180761974476,0.0321603578051,-0.180761974476,-0.96772804181,-0.171320888448
6700000000.0,-0.968658930833,-0.168758045527,0.031227905604,-0.178347130073,0.031227905604,-0.178347130073,-0.968658930833,-0.168758045527
6800000000.0,-0.969550848077,-0.166260583486,0.0303344004613,-0.175997844232,0.0303344004613,-0.175997844232,-0.969550848077,-0.166260583486
6900000000.0,-0.97040591829,-0.163826024376,0.0294777175296,-0.173711640174,0.0294777175296,-0.173711640174,-0.97040591829,-0.163826024376
7000000000.0,-0.971226124682,-0.161452007555,0.0286558734991,-0.171486158438,0.0286558734991,-0.171486158438,-0.971226124682,-0.161452007555
7100000000.0,-0.972013319972,-0.159136283296,0.0278670155498,-0.16931915049,0.0278670155498,-0.16931915049,-0.972013319972,-0.159136283296
7200000000.0,-0.972769236454,-0.156876706766,0.0271094112851,-0.167208472699,0.0271094112851,-0.167208472699,-0.972769236454,-0.156876706766
7300000000.0,-0.973495495181,-0.154671232352,0.0263814395508,-0.165152080663,0.0263814395508,-0.165152080663,-0.973495495181,-0.154671232352
7400000000.0,-0.974193614344,-0.152517908313,0.0256815820518,-0.163148023865,0.0256815820518,-0.163148023865,-0.974193614344,-0.152517908313
7500000000.0,-0.974865016938,-0.150414871754,0.0250084156892,-0.161194440648,0.0250084156892,-0.161194440648,-0.974865016938,-0.150414871754
7600000000.0,-0.97551103777,-0.148360343883,0.0243606055492,-0.159289553467,0.0243606055492,-0.159289553467,-0.97551103777,-0.148360343883
7700000000.0,-0.976132929887,-0.146352625555,0.023736898481,-0.157431664438,0.023736898481,-0.157431664438,-0.976132929887,-0.146352625555
7800000000.0,-0.976731870455,-0.144390093068,0.0231361172089,-0.155619151135,0.0231361172089,-0.155619151135,-0.976731870455,-0.144390093068
7900000000.0,-0.977308966171,-0.142471194211,0.0225571549296,-0.153850462634,0.0225571549296,-0.153850462634,-0.977308966171,-0.142471194211
8000000000.0,-0.977865258221,-0.14059444454,0.021998970348,-0.152124115793,0.021998970348,-0.152124115793,-0.977865258221,-0.14059444454
8100000000.0,-0.978401726844,-0.138758423868,0.0214605831137,-0.150438691741,0.0214605831137,-0.150438691741,-0.978401726844,-0.138758423868
8200000000.0,-0.978919295535,-0.136961772963,0.0209410696212,-0.148792832578,0.0209410696212,-0.148792832578,-0.978919295535,-0.136961772963
8300000000.0,-0.979418834911,-0.135203190433,0.0204395591406,-0.147185238258,0.0204395591406,-0.147185238258,-0.979418834911,-0.135203190433
8400000000.0,-0.97990116628,-0.133481429795,0.0199552302512,-0.145614663655,0.0199552302512,-0.145614663655,-0.97990116628,-0.133481429795
8500000000.0,-0.980367064931,-0.131795296702,0.0194873075495,-0.144079915802,0.0194873075495,-0.144079915802,-0.980367064931,-0.131795296702
8600000000.0,-0.980817263173,-0.130143646344,0.0190350586104,-0.142579851278,0.0190350586104,-0.142579851278,-0.980817263173,-0.130143646344
8700000000.0,-0.981252453146,-0.128525380979,0.0185977911767,-0.141113373749,0.0185977911767,-0.141113373749,-0.981252453146,-0.128525380979
8800000000.0,-0.981673289421,-0.126939447617,0.0181748505606,-0.139679431649,0.0181748505606,-0.139679431649,-0.981673289421,-0.126939447617
8900000000.0,-0.982080391402,-0.125384835828,0.017765617237,-0.138277015988,0.017765617237,-0.138277015988,-0.982080391402,-0.125384835828
9000000000.0,-0.982474345561,-0.123860575675,0.0173695046145,-0.136905158284,0.0173695046145,-0.136905158284,-0.982474345561,-0.123860575675
9100000000.0,-0.982855707501,-0.122365735758,0.0169859569676,-0.135562928609,0.0169859569676,-0.135562928609,-0.982855707501,-0.122365735758
9200000000.0,-0.983225003877,-0.12089942137,0.0166144475184,-0.134249433746,0.0166144475184,-0.134249433746,-0.983225003877,-0.12089942137
9300000000.0,-0.983582734177,-0.119460772753,0.016254476655,-0.132963815445,0.016254476655,-0.132963815445,-0.983582734177,-0.119460772753
9400000000.0,-0.983929372377,-0.11804896345,0.0159055702762,-0.131705248769,0.0159055702762,-0.131705248769,-0.983929372377,-0.11804896345
9500000000.0,-0.984265368479,-0.116663198744,0.0155672782511,-0.130472940545,0.0155672782511,-0.130472940545,-0.984265368479,-0.116663198744
9600000000.0,-0.984591149949,-0.115302714185,0.0152391729864,-0.129266127879,0.0152391729864,-0.129266127879,-0.984591149949,-0.115302714185
9700000000.0,-0.984907123047,-0.113966774193,0.0149208480918,-0.128084076766,0.0149208480918,-0.128084076766,-0.984907123047,-0.113966774193
9800000000.0,-0.985213674073,-0.112654670734,0.0146119171361,-0.126926080767,0.0146119171361,-0.126926080767,-0.985213674073,-0.112654670734
9900000000.0,-0.985511170527,-0.111365722074,0.0143120124873,-0.125791459755,0.0143120124873,-0.125791459755,-0.985511170527,-0.111365722074
10000000000.0,-0.985799962188,-0.110099271584,0.0140207842303,-0.124679558734,0.0140207842303,-0.124679558734,-0.985799962188,-0.110099271584
