freq (GHz),S11_real,S11_imag,S21_real,S21_imag,S12_real,S12_imag,S22_real,S22_imag
100000000.0,8.75253974868e-05,1.40174330204e-05,0.999911231926,-0.000241608021809,0.999911231926,-0.000241608021809,8.7525397487e-05,1.40174330203e-05
200000000.0,8.80178124294e-05,2.80327840469e-05,0.999910445023,-0.000483222156771,0.999910445023,-0.000483222156771,8.80178124296e-05,2.80327840469e-05
300000000.0,8.83620277017e-05,4.2045277815e-05,0.999909754493,-0.000724845820368,0.999909754493,-0.000724845820368,8.83620277021e-05,4.2045277815e-05
400000000.0,8.86344336242e-05,5.60543005974e-05,0.999909083932,-0.000966481586436,0.999909083932,-0.000966481586436,8.86344336244e-05,5.60543005974e-05
500000000.0,8.88644160717e-05,7.00593540842e-05,0.999908403937,-0.00120813162179,0.999908403937,-0.00120813162179,8.88644160717e-05,7.00593540842e-05
600000000.0,8.90669441111e-05,8.40600224739e-05,0.99990769952,-0.00144979783289,0.99990769952,-0.00144979783289,8.90669441111e-05,8.40600224739e-05
700000000.0,8.92508489221e-05,9.8055955376e-05,0.999906961831,-0.0016914819376,0.999906961831,-0.0016914819376,8.92508489219e-05,9.8055955376e-05
800000000.0,8.94218442355e-05,0.000112046856791,0.999906185134,-0.00193318550765,0.999906185134,-0.00193318550765,8.94218442355e-05,0.000112046856791
900000000.0,8.95838702191e-05,0.000126032477638,0.999905365468,-0.00217490999634,0.999905365468,-0.00217490999634,8.95838702188e-05,0.000126032477638
1000000000.0,8.97397745567e-05,0.000140012609169,0.99990449996,-0.002416656759,0.99990449996,-0.002416656759,8.97397745565e-05,0.000140012609169
1100000000.0,8.98916906162e-05,0.000153987079446,0.999903586453,-0.00265842706657,0.999903586453,-0.00265842706657,8.98916906162e-05,0.000153987079446
1200000000.0,9.00412629723e-05,0.000167955748673,0.999902623278,-0.00290022211781,0.999902623278,-0.00290022211781,9.00412629721e-05,0.000167955748673
1300000000.0,9.01897889598e-05,0.000181918507382,0.999901609111,-0.00314204304695,0.999901609111,-0.00314204304695,9.018978896e-05,0.000181918507382
1400000000.0,9.03383118642e-05,0.000195875273357,0.999900542881,-0.00338389093141,0.999900542881,-0.00338389093141,9.03383118642e-05,0.000195875273357
1500000000.0,9.04876842678e-05,0.000209825989957,0.999899423708,-0.00362576679721,0.999899423708,-0.00362576679721,9.04876842673e-05,0.000209825989957
1600000000.0,9.06386126041e-05,0.000223770623954,0.999898250858,-0.00386767162419,0.999898250858,-0.00386767162419,9.06386126041e-05,0.000223770623954
1700000000.0,9.0791689211e-05,0.000237709164602,0.999897023709,-0.00410960634955,0.999897023709,-0.00410960634955,9.07916892108e-05,0.000237709164602
1800000000.0,9.09474159356e-05,0.000251641621669,0.99989574173,-0.00435157187194,0.99989574173,-0.00435157187194,9.09474159356e-05,0.000251641621669
1900000000.0,9.11062218929e-05,0.000265568024598,0.999894404462,-0.00459356905413,0.999894404462,-0.00459356905413,9.11062218929e-05,0.000265568024598
2000000000.0,9.12684769798e-05,0.000279488421644,0.999893011504,-0.0048355987255,0.999893011504,-0.0048355987255,9.12684769798e-05,0.000279488421644
2100000000.0,9.14345024052e-05,0.000293402878243,0.999891562505,-0.005077661685,0.999891562505,-0.005077661685,9.14345024057e-05,0.000293402878243
2200000000.0,9.1604578927e-05,0.000307311476785,0.999890057151,-0.0053197587026,0.999890057151,-0.0053197587026,9.16045789274e-05,0.000307311476785
2300000000.0,9.17789534138e-05,0.00032121431535,0.999888495165,-0.00556189052161,0.999888495165,-0.00556189052161,9.17789534141e-05,0.00032121431535
2400000000.0,9.19578441383e-05,0.000335111507461,0.999886876296,-0.00580405785983,0.999886876296,-0.00580405785983,9.19578441383e-05,0.000335111507461
2500000000.0,9.21414450545e-05,0.000349003180861,0.999885200317,-0.00604626141161,0.999885200317,-0.00604626141161,9.21414450545e-05,0.000349003180861
2600000000.0,9.23299293119e-05,0.000362889477302,0.999883467024,-0.00628850184883,0.999883467024,-0.00628850184883,9.23299293116e-05,0.000362889477302
2700000000.0,9.25234521696e-05,0.000376770551777,0.999881676228,-0.00653077982228,0.999881676228,-0.00653077982228,9.25234521696e-05,0.000376770551777
2800000000.0,9.27221534035e-05,0.000390646571946,0.999879827755,-0.00677309596288,0.999879827755,-0.00677309596288,9.27221534035e-05,0.000390646571946
2900000000.0,9.2926159339e-05,0.000404517717774,0.999877921447,-0.00701545088252,0.999877921447,-0.00701545088252,9.2926159339e-05,0.000404517717774
3000000000.0,9.31355845637e-05,0.000418384180901,0.999875957155,-0.00725784517524,0.999875957155,-0.00725784517524,9.31355845637e-05,0.000418384180901
3100000000.0,9.33505333822e-05,0.000432246164344,0.999873934742,-0.00750027941793,0.999873934742,-0.00750027941793,9.33505333822e-05,0.000432246164344
3200000000.0,9.35711010508e-05,0.000446103881969,0.999871854077,-0.00774275417128,0.999871854077,-0.00774275417128,9.35711010508e-05,0.000446103881969
3300000000.0,9.37973748536e-05,0.000459957558143,0.999869715041,-0.0079852699805,0.999869715041,-0.0079852699805,9.37973748536e-05,0.000459957558143
3400000000.0,9.40294350151e-05,0.00047380742726,0.999867517519,-0.00822782737612,0.999867517519,-0.00822782737612,9.40294350149e-05,0.00047380742726
3500000000.0,9.42673554984e-05,0.000487653733623,0.999865261403,-0.00847042687444,0.999865261403,-0.00847042687444,9.42673554984e-05,0.000487653733623
3600000000.0,9.45112047037e-05,0.000501496730866,0.99986294659,-0.00871306897838,0.99986294659,-0.00871306897838,9.45112047035e-05,0.000501496730866
3700000000.0,9.47610460671e-05,0.00051533668172,0.999860572983,-0.00895575417797,0.999860572983,-0.00895575417797,9.47610460675e-05,0.00051533668172
3800000000.0,9.50169386003e-05,0.000529173857768,0.999858140489,-0.00919848295087,0.999858140489,-0.00919848295087,9.50169386003e-05,0.000529173857768
3900000000.0,9.52789373543e-05,0.000543008539037,0.999855649018,-0.00944125576299,0.999855649018,-0.00944125576299,9.52789373543e-05,0.000543008539037
4000000000.0,9.5547093838e-05,0.000556841013809,0.999853098486,-0.00968407306888,0.999853098486,-0.00968407306888,9.55470938375e-05,0.00055684101381
4100000000.0,9.58214563793e-05,0.000570671578385,0.999850488809,-0.00992693531218,0.999850488809,-0.00992693531218,9.58214563791e-05,0.000570671578385
4200000000.0,9.61020704604e-05,0.000584500536816,0.999847819908,-0.0101698429261,0.999847819908,-0.0101698429261,9.61020704604e-05,0.000584500536816
4300000000.0,9.63889790018e-05,0.00059832820049,0.999845091706,-0.0104127963338,0.999845091706,-0.0104127963338,9.63889790018e-05,0.00059832820049
4400000000.0,9.66822226274e-05,0.000612154888184,0.999842304129,-0.010655795949,0.999842304129,-0.010655795949,9.66822226274e-05,0.000612154888184
4500000000.0,9.69818398946e-05,0.000625980925667,0.999839457104,-0.0108988421758,0.999839457104,-0.0108988421758,9.69818398944e-05,0.000625980925667
4600000000.0,9.72878675081e-05,0.000639806645557,0.999836550561,-0.0111419354096,0.999836550561,-0.0111419354096,9.72878675083e-05,0.000639806645557
4700000000.0,9.76003405098e-05,0.000653632387063,0.999833584431,-0.0113850760372,0.999833584431,-0.0113850760372,9.76003405098e-05,0.000653632387063
4800000000.0,9.79192924473e-05,0.000667458495801,0.999830558646,-0.0116282644372,0.999830558646,-0.0116282644372,9.79192924471e-05,0.000667458495801
4900000000.0,9.8244755528e-05,0.000681285323741,0.999827473143,-0.0118715009799,0.999827473143,-0.0118715009799,9.82447555282e-05,0.000681285323741
5000000000.0,9.85767607682e-05,0.000695113228763,0.999824327855,-0.0121147860283,0.999824327855,-0.0121147860283,9.85767607682e-05,0.000695113228763
5100000000.0,9.89153381104e-05,0.000708942574763,0.999821122721,-0.0123581199379,0.999821122721,-0.0123581199379,9.89153381104e-05,0.000708942574763
5200000000.0,9.92605165477e-05,0.000722773731343,0.999817857678,-0.0126015030567,0.999817857678,-0.0126015030567,9.92605165477e-05,0.000722773731343
5300000000.0,9.96123242267e-05,0.000736607073632,0.999814532665,-0.0128449357263,0.999814532665,-0.0128449357263,9.96123242267e-05,0.000736607073632
5400000000.0,9.99707885467e-05,0.000750442982231,0.999811147623,-0.0130884182813,0.999811147623,-0.0130884182813,9.9970788547e-05,0.000750442982231
5500000000.0,0.000100335936249,0.000764281842943,0.999807702492,-0.01333195105,0.999807702492,-0.01333195105,0.000100335936249,0.000764281842943
5600000000.0,0.000100707793498,0.000778124046786,0.999804197214,-0.0135755343545,0.999804197214,-0.0135755343545,0.000100707793498,0.000778124046786
5700000000.0,0.000101086385956,0.000791969989707,0.99980063173,-0.0138191685108,0.99980063173,-0.0138191685108,0.000101086385956,0.000791969989707
5800000000.0,0.000101471738859,0.000805820072505,0.999797005985,-0.0140628538291,0.999797005985,-0.0140628538291,0.000101471738859,0.000805820072505
5900000000.0,0.000101863877069,0.000819674700779,0.999793319922,-0.0143065906141,0.999793319922,-0.0143065906141,0.000101863877069,0.000819674700779
6000000000.0,0.000102262825144,0.00083353428468,0.999789573485,-0.014550379165,0.999789573485,-0.014550379165,0.000102262825144,0.00083353428468
6100000000.0,0.000102668607389,0.000847399238849,0.999785766617,-0.0147942197756,0.999785766617,-0.0147942197756,0.000102668607389,0.000847399238849
6200000000.0,0.000103081247906,0.000861269982327,0.999781899266,-0.0150381127349,0.999781899266,-0.0150381127349,0.000103081247906,0.000861269982327
6300000000.0,0.000103500770642,0.000875146938417,0.999777971375,-0.0152820583267,0.999777971375,-0.0152820583267,0.000103500770641,0.000875146938417
6400000000.0,0.000103927199431,0.000889030534557,0.999773982891,-0.0155260568303,0.999773982891,-0.0155260568303,0.00010392719943,0.000889030534557
6500000000.0,0.000104360558038,0.000902921202265,0.999769933759,-0.0157701085201,0.999769933759,-0.0157701085201,0.000104360558038,0.000902921202265
6600000000.0,0.000104800870196,0.000916819377003,0.999765823927,-0.0160142136663,0.999765823927,-0.0160142136663,0.000104800870196,0.000916819377003
6700000000.0,0.000105248159639,0.000930725498108,0.99976165334,-0.0162583725345,0.99976165334,-0.0162583725345,0.000105248159639,0.000930725498108
6800000000.0,0.000105702450138,0.000944640008631,0.999757421946,-0.0165025853864,0.999757421946,-0.0165025853864,0.000105702450138,0.000944640008631
6900000000.0,0.000106163765529,0.00095856335535,0.999753129693,-0.0167468524794,0.999753129693,-0.0167468524794,0.000106163765529,0.00095856335535
7000000000.0,0.000106632129744,0.000972495988561,0.999748776526,-0.016991174067,0.999748776526,-0.016991174067,0.000106632129744,0.000972495988561
7100000000.0,0.000107107566839,0.000986438362154,0.999744362394,-0.017235550399,0.999744362394,-0.017235550399,0.000107107566839,0.000986438362154
7200000000.0,0.000107590101016,0.00100039093339,0.999739887245,-0.0174799817213,0.999739887245,-0.0174799817213,0.000107590101016,0.00100039093339
7300000000.0,0.00010807975665,0.00101435416282,0.999735351026,-0.0177244682763,0.999735351026,-0.0177244682763,0.000108079756651,0.00101435416282
7400000000.0,0.00010857655831,0.00102832851429,0.999730753685,-0.0179690103029,0.999730753685,-0.0179690103029,0.000108576558309,0.00102832851429
7500000000.0,0.000109080530779,0.00104231445488,0.99972609517,-0.0182136080367,0.99972609517,-0.0182136080367,0.000109080530779,0.00104231445488
7600000000.0,0.000109591699076,0.0010563124547,0.999721375429,-0.0184582617099,0.999721375429,-0.0184582617099,0.000109591699076,0.0010563124547
7700000000.0,0.000110110088476,0.00107032298698,0.999716594411,-0.0187029715515,0.999716594411,-0.0187029715515,0.000110110088476,0.00107032298698
7800000000.0,0.000110635724521,0.00108434652782,0.999711752063,-0.0189477377874,0.999711752063,-0.0189477377874,0.000110635724521,0.00108434652782
7900000000.0,0.000111168633044,0.00109838355632,0.999706848334,-0.0191925606406,0.999706848334,-0.0191925606406,0.000111168633044,0.00109838355632
8000000000.0,0.000111708840183,0.00111243455439,0.999701883173,-0.019437440331,0.999701883173,-0.019437440331,0.000111708840183,0.00111243455439
8100000000.0,0.000112256372391,0.00112650000671,0.999696856526,-0.0196823770758,0.999696856526,-0.0196823770758,0.000112256372391,0.00112650000671
8200000000.0,0.000112811256458,0.00114058040066,0.999691768343,-0.0199273710894,0.999691768343,-0.0199273710894,0.000112811256458,0.00114058040066
8300000000.0,0.000113373519518,0.00115467622632,0.999686618573,-0.0201724225834,0.999686618573,-0.0201724225834,0.000113373519518,0.00115467622632
8400000000.0,0.000113943189064,0.00116878797634,0.999681407162,-0.0204175317671,0.999681407162,-0.0204175317671,0.000113943189064,0.00116878797634
8500000000.0,0.00011452029296,0.00118291614594,0.99967613406,-0.0206626988469,0.99967613406,-0.0206626988469,0.00011452029296,0.00118291614594
8600000000.0,0.000115104859453,0.00119706123279,0.999670799215,-0.0209079240269,0.999670799215,-0.0209079240269,0.000115104859454,0.00119706123279
8700000000.0,0.000115696917185,0.00121122373702,0.999665402575,-0.0211532075089,0.999665402575,-0.0211532075089,0.000115696917185,0.00121122373702
8800000000.0,0.000116296495198,0.00122540416117,0.999659944088,-0.0213985494922,0.999659944088,-0.0213985494922,0.000116296495197,0.00122540416117
8900000000.0,0.000116903622949,0.00123960301008,0.999654423702,-0.0216439501738,0.999654423702,-0.0216439501738,0.000116903622949,0.00123960301008
9000000000.0,0.00011751833032,0.00125382079089,0.999648841366,-0.0218894097486,0.999648841366,-0.0218894097486,0.00011751833032,0.00125382079089
9100000000.0,0.000118140647622,0.00126805801296,0.999643197027,-0.0221349284094,0.999643197027,-0.0221349284094,0.000118140647622,0.00126805801296
9200000000.0,0.00011877060561,0.0012823151879,0.999637490633,-0.0223805063467,0.999637490633,-0.0223805063467,0.000118770605609,0.0012823151879
9300000000.0,0.000119408235481,0.0012965928294,0.999631722133,-0.0226261437492,0.999631722133,-0.0226261437492,0.000119408235481,0.0012965928294
9400000000.0,0.000120053568897,0.0013108914533,0.999625891473,-0.0228718408035,0.999625891473,-0.0228718408035,0.000120053568896,0.0013108914533
9500000000.0,0.000120706637976,0.0013252115775,0.999619998603,-0.0231175976942,0.999619998603,-0.0231175976942,0.000120706637976,0.0013252115775
9600000000.0,0.000121367475311,0.00133955372188,0.999614043468,-0.0233634146041,0.999614043468,-0.0233634146041,0.000121367475311,0.00133955372188
9700000000.0,0.000122036113974,0.00135391840836,0.999608026017,-0.023609291714,0.999608026017,-0.023609291714,0.000122036113974,0.00135391840836
9800000000.0,0.000122712587518,0.00136830616075,0.999601946198,-0.0238552292033,0.999601946198,-0.0238552292033,0.000122712587518,0.00136830616075
9900000000.0,0.000123396929989,0.0013827175048,0.999595803957,-0.0241012272492,0.999595803957,-0.0241012272492,0.000123396929989,0.0013827175048
10000000000.0,0.000124089175927,0.0013971529681,0.999589599242,-0.0243472860275,0.999589599242,-0.0243472860275,0.000124089175927,0.0013971529681
