freq (GHz),S11_real,S11_imag,S21_real,S21_imag,S12_real,S12_imag,S22_real,S22_imag
100000000.0,0.00115369468666,0.000305703491473,0.998840092397,-0.00271829084082,0.998840092397,-0.00271829084082,0.00115369468666,0.000305703491473
200000000.0,0.00116276893823,0.000611339997546,0.998819981864,-0.0054365805537,0.998819981864,-0.0054365805537,0.00116276893823,0.000611339997546
300000000.0,0.00117148140874,0.000916910801276,0.998794408765,-0.00815490334706,0.998794408765,-0.00815490334706,0.00117148140874,0.000916910801276
400000000.0,0.00118083188046,0.00122240736742,0.99876237204,-0.0108732727377,0.99876237204,-0.0108732727377,0.00118083188046,0.00122240736742
500000000.0,0.00119120480225,0.0015278196267,0.998723485723,-0.0135916951229,0.998723485723,-0.0135916951229,0.00119120480225,0.0015278196267
600000000.0,0.00120279583131,0.0018331371675,0.998677552441,-0.016310172844,0.998677552441,-0.016310172844,0.00120279583131,0.0018331371675
700000000.0,0.00121572021728,0.00213834959904,0.998624455053,-0.0190287055111,0.998624455053,-0.0190287055111,0.00121572021728,0.00213834959904
800000000.0,0.00123005234351,0.00244344668854,0.99856411713,-0.021747290721,0.99856411713,-0.021747290721,0.00123005234351,0.00244344668854
900000000.0,0.0012458433268,0.0027484184168,0.998496485376,-0.0244659244978,0.998496485376,-0.0244659244978,0.0012458433268,0.0027484184168
1000000000.0,0.00126312993579,0.00305325499959,0.998421520717,-0.0271846015882,0.998421520717,-0.0271846015882,0.00126312993579,0.00305325499959
1100000000.0,0.00128193954751,0.0033579468933,0.998339193363,-0.0299033156701,0.998339193363,-0.0299033156701,0.00128193954751,0.0033579468933
1200000000.0,0.00130229310045,0.00366248479306,0.998249479862,-0.0326220595083,0.998249479862,-0.0326220595083,0.00130229310045,0.00366248479306
1300000000.0,0.00132420695256,0.00396685962707,0.998152361254,-0.0353408250725,0.998152361254,-0.0353408250725,0.00132420695256,0.00396685962707
1400000000.0,0.00134769410253,0.00427106254921,0.998047821857,-0.038059603632,0.998047821857,-0.038059603632,0.00134769410253,0.00427106254921
1500000000.0,0.00137276502231,0.00457508493084,0.997935848442,-0.0407783858306,0.997935848442,-0.0407783858306,0.00137276502231,0.00457508493084
1600000000.0,0.00139942824206,0.00487891835246,0.997816429657,-0.0434971617489,0.997816429657,-0.0434971617489,0.00139942824206,0.00487891835246
1700000000.0,0.00142769077196,0.00518255459535,0.997689555609,-0.0462159209564,0.997689555609,-0.0462159209564,0.00142769077196,0.00518255459535
1800000000.0,0.00145755841328,0.00548598563354,0.997555217563,-0.0489346525552,0.997555217563,-0.0489346525552,0.00145755841328,0.00548598563354
1900000000.0,0.00148903599231,0.00578920362604,0.99741340771,-0.0516533452176,0.99741340771,-0.0516533452176,0.00148903599231,0.00578920362604
2000000000.0,0.00152212753936,0.00609220090944,0.997264118993,-0.0543719872185,0.997264118993,-0.0543719872185,0.00152212753936,0.00609220090944
2100000000.0,0.00155683642782,0.00639496999087,0.997107344978,-0.0570905664641,0.997107344978,-0.0570905664641,0.00155683642782,0.00639496999087
2200000000.0,0.00159316548372,0.00669750354125,0.996943079742,-0.0598090705166,0.996943079742,-0.0598090705166,0.00159316548372,0.00669750354125
2300000000.0,0.00163111707306,0.00699979438902,0.996771317795,-0.0625274866161,0.996771317795,-0.0625274866161,0.00163111707306,0.00699979438902
2400000000.0,0.00167069317232,0.00730183551401,0.996592054012,-0.0652458017009,0.996592054012,-0.0652458017009,0.00167069317232,0.00730183551401
2500000000.0,0.00171189542583,0.00760362004172,0.996405283579,-0.0679640024247,0.996405283579,-0.0679640024247,0.00171189542583,0.00760362004172
2600000000.0,0.00175472519308,0.00790514123791,0.996211001952,-0.0706820751725,0.996211001952,-0.0706820751725,0.00175472519308,0.00790514123791
2700000000.0,0.00179918358784,0.00820639250332,0.996009204815,-0.0734000060756,0.996009204815,-0.0734000060756,0.00179918358784,0.00820639250332
2800000000.0,0.00184527151098,0.00850736736878,0.995799888059,-0.076117781024,0.995799888059,-0.076117781024,0.00184527151098,0.00850736736878
2900000000.0,0.00189298967807,0.00880805949047,0.995583047751,-0.0788353856791,0.995583047751,-0.0788353856791,0.00189298967807,0.00880805949047
3000000000.0,0.00194233864284,0.00910846264539,0.995358680114,-0.0815528054839,0.995358680114,-0.0815528054839,0.00194233864284,0.00910846264539
3100000000.0,0.00199331881719,0.00940857072707,0.995126781515,-0.0842700256739,0.995126781515,-0.0842700256739,0.00199331881719,0.00940857072707
3200000000.0,0.00204593048838,0.00970837774142,0.994887348445,-0.0869870312859,0.994887348445,-0.0869870312859,0.00204593048838,0.00970837774142
3300000000.0,0.00210017383387,0.0100078778028,0.994640377508,-0.0897038071667,0.994640377508,-0.0897038071667,0.00210017383387,0.0100078778028
3400000000.0,0.00215604893425,0.0103070651302,0.994385865412,-0.0924203379813,0.994385865412,-0.0924203379813,0.00215604893425,0.0103070651302
3500000000.0,0.00221355578449,0.0106059340436,0.99412380896,-0.0951366082202,0.99412380896,-0.0951366082202,0.00221355578449,0.0106059340436
3600000000.0,0.00227269430382,0.0109044789605,0.993854205041,-0.0978526022061,0.993854205041,-0.0978526022061,0.00227269430382,0.0109044789605
3700000000.0,0.00233346434444,0.0112026943926,0.993577050623,-0.100568304101,0.993577050623,-0.100568304101,0.00233346434444,0.0112026943926
3800000000.0,0.0023958656992,0.0115005749423,0.99329234275,-0.103283697911,0.99329234275,-0.103283697911,0.0023958656992,0.0115005749423
3900000000.0,0.00245989810846,0.0117981153,0.993000078536,-0.105998767494,0.993000078536,-0.105998767494,0.00245989810846,0.0117981153
4000000000.0,0.00252556126617,0.0120953102406,0.992700255159,-0.108713496562,0.992700255159,-0.108713496562,0.00252556126617,0.0120953102406
4100000000.0,0.00259285482533,0.0123921546211,0.992392869858,-0.11142786869,0.992392869858,-0.11142786869,0.00259285482533,0.0123921546211
4200000000.0,0.00266177840288,0.0126886433772,0.992077919934,-0.114141867317,0.992077919934,-0.114141867317,0.00266177840288,0.0126886433772
4300000000.0,0.00273233158412,0.0129847715213,0.99175540274,-0.116855475753,0.99175540274,-0.116855475753,0.00273233158412,0.0129847715213
4400000000.0,0.00280451392667,0.0132805341392,0.991425315686,-0.119568677182,0.991425315686,-0.119568677182,0.00280451392667,0.0132805341392
4500000000.0,0.00287832496408,0.0135759263879,0.99108765623,-0.122281454665,0.99108765623,-0.122281454665,0.00287832496408,0.0135759263879
4600000000.0,0.00295376420913,0.0138709434932,0.990742421883,-0.124993791146,0.990742421883,-0.124993791146,0.00295376420913,0.0138709434932
4700000000.0,0.00303083115677,0.0141655807469,0.990389610202,-0.127705669455,0.990389610202,-0.127705669455,0.00303083115677,0.0141655807469
4800000000.0,0.00310952528686,0.014459833505,0.990029218791,-0.13041707231,0.990029218791,-0.13041707231,0.00310952528686,0.014459833505
4900000000.0,0.00318984606667,0.0147536971851,0.989661245301,-0.133127982321,0.989661245301,-0.133127982321,0.00318984606667,0.0147536971851
5000000000.0,0.00327179295314,0.0150471672644,0.989285687427,-0.135838381993,0.989285687427,-0.135838381993,0.00327179295314,0.0150471672644
5100000000.0,0.00335536539497,0.0153402392774,0.988902542908,-0.138548253729,0.988902542908,-0.138548253729,0.00335536539497,0.0153402392774
5200000000.0,0.00344056283458,0.0156329088139,0.988511809524,-0.141257579834,0.988511809524,-0.141257579834,0.00344056283458,0.0156329088139
5300000000.0,0.00352738470982,0.0159251715172,0.988113485102,-0.143966342514,0.988113485102,-0.143966342514,0.00352738470982,0.0159251715172
5400000000.0,0.00361583045568,0.0162170230818,0.987707567506,-0.146674523882,0.987707567506,-0.146674523882,0.00361583045568,0.0162170230818
5500000000.0,0.00370589950575,0.0165084592517,0.987294054644,-0.14938210596,0.987294054644,-0.14938210596,0.00370589950575,0.0165084592517
5600000000.0,0.00379759129364,0.0167994758185,0.986872944466,-0.152089070679,0.986872944466,-0.152089070679,0.00379759129364,0.0167994758185
5700000000.0,0.00389090525428,0.0170900686196,0.986444234962,-0.154795399882,0.986444234962,-0.154795399882,0.00389090525428,0.0170900686196
5800000000.0,0.00398584082512,0.0173802335363,0.986007924161,-0.157501075329,0.986007924161,-0.157501075329,0.00398584082512,0.0173802335363
5900000000.0,0.00408239744724,0.0176699664925,0.985564010134,-0.160206078696,0.985564010134,-0.160206078696,0.00408239744724,0.0176699664925
6000000000.0,0.0041805745664,0.0179592634524,0.985112490994,-0.162910391576,0.985112490994,-0.162910391576,0.0041805745664,0.0179592634524
6100000000.0,0.00428037163397,0.0182481204194,0.98465336489,-0.165613995483,0.98465336489,-0.165613995483,0.00428037163397,0.0182481204194
6200000000.0,0.0043817881079,0.0185365334341,0.984186630016,-0.168316871855,0.984186630016,-0.168316871855,0.0043817881079,0.0185365334341
6300000000.0,0.00448482345346,0.0188244985732,0.983712284601,-0.17101900205,0.983712284601,-0.17101900205,0.00448482345346,0.0188244985732
6400000000.0,0.00458947714411,0.0191120119474,0.983230326918,-0.173720367355,0.983230326918,-0.173720367355,0.00458947714411,0.0191120119474
6500000000.0,0.00469574866213,0.0193990697002,0.982740755279,-0.176420948982,0.982740755279,-0.176420948982,0.00469574866213,0.0193990697002
6600000000.0,0.00480363749939,0.0196856680067,0.982243568036,-0.179120728072,0.982243568036,-0.179120728072,0.00480363749939,0.0196856680067
6700000000.0,0.00491314315789,0.0199718030716,0.981738763581,-0.181819685695,0.981738763581,-0.181819685695,0.00491314315789,0.0199718030716
6800000000.0,0.00502426515041,0.0202574711282,0.981226340347,-0.184517802853,0.981226340347,-0.184517802853,0.00502426515041,0.0202574711282
6900000000.0,0.005137003001,0.0205426684368,0.980706296807,-0.18721506048,0.980706296807,-0.18721506048,0.005137003001,0.0205426684368
7000000000.0,0.00525135624552,0.0208273912837,0.980178631476,-0.189911439442,0.980178631476,-0.189911439442,0.00525135624552,0.0208273912837
7100000000.0,0.00536732443211,0.0211116359794,0.979643342908,-0.192606920544,0.979643342908,-0.192606920544,0.00536732443211,0.0211116359794
7200000000.0,0.00548490712159,0.0213953988576,0.979100429698,-0.195301484522,0.979100429698,-0.195301484522,0.00548490712159,0.0213953988576
7300000000.0,0.00560410388787,0.021678676274,0.978549890484,-0.197995112052,0.978549890484,-0.197995112052,0.00560410388787,0.021678676274
7400000000.0,0.00572491431838,0.0219614646048,0.977991723943,-0.200687783748,0.977991723943,-0.200687783748,0.00572491431838,0.0219614646048
7500000000.0,0.00584733801432,0.0222437602456,0.977425928795,-0.203379480163,0.977425928795,-0.203379480163,0.00584733801432,0.0222437602456
7600000000.0,0.00597137459105,0.0225255596103,0.976852503802,-0.206070181789,0.976852503802,-0.206070181789,0.00597137459105,0.0225255596103
7700000000.0,0.00609702367834,0.0228068591298,0.976271447766,-0.20875986906,0.976271447766,-0.20875986906,0.00609702367834,0.0228068591298
7800000000.0,0.00622428492067,0.0230876552508,0.975682759533,-0.211448522352,0.975682759533,-0.211448522352,0.00622428492067,0.0230876552508
7900000000.0,0.00635315797744,0.0233679444347,0.975086437991,-0.214136121984,0.975086437991,-0.214136121984,0.00635315797744,0.0233679444347
8000000000.0,0.00648364252318,0.0236477231568,0.974482482069,-0.216822648218,0.974482482069,-0.216822648218,0.00648364252318,0.0236477231568
8100000000.0,0.00661573824781,0.0239269879046,0.973870890742,-0.219508081262,0.973870890742,-0.219508081262,0.00661573824781,0.0239269879046
8200000000.0,0.00674944485674,0.0242057351771,0.973251663024,-0.222192401267,0.973251663024,-0.222192401267,0.00674944485674,0.0242057351771
8300000000.0,0.00688476207111,0.0244839614838,0.972624797977,-0.224875588333,0.972624797977,-0.224875588333,0.00688476207111,0.0244839614838
8400000000.0,0.00702168962783,0.0247616633435,0.971990294701,-0.227557622503,0.971990294701,-0.227557622503,0.00702168962783,0.0247616633435
8500000000.0,0.00716022727982,0.0250388372831,0.971348152345,-0.230238483772,0.971348152345,-0.230238483772,0.00716022727982,0.0250388372831
8600000000.0,0.00730037479599,0.0253154798372,0.9706983701,-0.232918152079,0.9706983701,-0.232918152079,0.00730037479599,0.0253154798372
8700000000.0,0.00744213196143,0.0255915875462,0.9700409472,-0.235596607315,0.9700409472,-0.235596607315,0.00744213196143,0.0255915875462
8800000000.0,0.00758549857743,0.0258671569561,0.969375882925,-0.238273829318,0.969375882925,-0.238273829318,0.00758549857743,0.0258671569561
8900000000.0,0.00773047446154,0.0261421846174,0.968703176601,-0.240949797878,0.968703176601,-0.240949797878,0.00773047446154,0.0261421846174
9000000000.0,0.0078770594476,0.0264166670835,0.968022827596,-0.243624492735,0.968022827596,-0.243624492735,0.0078770594476,0.0264166670835
9100000000.0,0.0080252533858,0.0266906009108,0.967334835327,-0.24629789358,0.967334835327,-0.24629789358,0.0080252533858,0.0266906009108
9200000000.0,0.00817505614268,0.0269639826568,0.966639199255,-0.248969980055,0.966639199255,-0.248969980055,0.00817505614268,0.0269639826568
9300000000.0,0.00832646760108,0.0272368088799,0.965935918886,-0.251640731756,0.965935918886,-0.251640731756,0.00832646760108,0.0272368088799
9400000000.0,0.00847948766018,0.0275090761381,0.965224993775,-0.254310128231,0.965224993775,-0.254310128231,0.00847948766018,0.0275090761381
9500000000.0,0.00863411623546,0.0277807809882,0.964506423519,-0.256978148982,0.964506423519,-0.256978148982,0.00863411623546,0.0277807809882
9600000000.0,0.00879035325864,0.0280519199851,0.963780207768,-0.259644773462,0.963780207768,-0.259644773462,0.00879035325864,0.0280519199851
9700000000.0,0.00894819867763,0.0283224896808,0.963046346214,-0.262309981083,0.963046346214,-0.262309981083,0.00894819867763,0.0283224896808
9800000000.0,0.00910765245646,0.0285924866233,0.962304838598,-0.264973751207,0.962304838598,-0.264973751207,0.00910765245646,0.0285924866233
9900000000.0,0.00926871457524,0.0288619073564,0.961555684711,-0.267636063154,0.961555684711,-0.267636063154,0.00926871457524,0.0288619073564
10000000000.0,0.00943138503,0.0291307484181,0.960798884388,-0.270296896199,0.960798884388,-0.270296896199,0.00943138503,0.0291307484181
