freq (GHz),S11_real,S11_imag,S21_real,S21_imag,S12_real,S12_imag,S22_real,S22_imag
100000000.0,0.0123765221944,0.00217819865882,0.9876175065,-0.00452093987723,0.9876175065,-0.00452093987723,0.0123765221944,0.00217819865882
200000000.0,0.01248658724,0.00435509900279,0.987496958329,-0.00904058993169,0.987496958329,-0.00904058993169,0.01248658724,0.00435509900279
300000000.0,0.0125949573155,0.0065309405014,0.987372592706,-0.0135591990686,0.987372592706,-0.0135591990686,0.0125949573155,0.0065309405014
400000000.0,0.0127122557387,0.00870567336412,0.987233785639,-0.0180767246466,0.987233785639,-0.0180767246466,0.0127122557387,0.00870567336412
500000000.0,0.012842569081,0.0108791807875,0.987076449774,-0.0225930558615,0.987076449774,-0.0225930558615,0.012842569081,0.0108791807875
600000000.0,0.0129879752882,0.0130513164618,0.986898506273,-0.0271080516506,0.986898506273,-0.0271080516506,0.0129879752882,0.0130513164618
700000000.0,0.0131496950429,0.0152219180433,0.986698733441,-0.0316215543682,0.986698733441,-0.0316215543682,0.0131496950429,0.0152219180433
800000000.0,0.0133285120502,0.0173908134111,0.986476346447,-0.0361333961635,0.986476346447,-0.0361333961635,0.0133285120502,0.0173908134111
900000000.0,0.0135249601982,0.019557824037,0.98623081016,-0.0406434024299,0.98623081016,-0.0406434024299,0.0135249601982,0.019557824037
1000000000.0,0.0137394184383,0.0217227669905,0.98596174427,-0.045151393866,0.98596174427,-0.045151393866,0.0137394184383,0.0217227669905
1100000000.0,0.0139721635342,0.0238854562216,0.98566887054,-0.0496571877993,0.98566887054,-0.0496571877993,0.0139721635342,0.0238854562216
1200000000.0,0.0142234014982,0.026045703429,0.985351981374,-0.0541605990858,0.985351981374,-0.0541605990858,0.0142234014982,0.026045703429
1300000000.0,0.0144932873725,0.0282033186748,0.98501092003,-0.0586614407492,0.98501092003,-0.0586614407492,0.0144932873725,0.0282033186748
1400000000.0,0.0147819382338,0.0303581108369,0.984645567621,-0.0631595244525,0.984645567621,-0.0631595244525,0.0147819382338,0.0303581108369
1500000000.0,0.0150894420586,0.0325098879521,0.98425583425,-0.0676546608574,0.98425583425,-0.0676546608574,0.0150894420586,0.0325098879521
1600000000.0,0.0154158639506,0.0346584574844,0.983841652784,-0.0721466599057,0.983841652784,-0.0721466599057,0.0154158639506,0.0346584574844
1700000000.0,0.0157612506326,0.0368036265394,0.983402974358,-0.0766353310452,0.983402974358,-0.0766353310452,0.0157612506326,0.0368036265394
1800000000.0,0.0161256337578,0.0389452020405,0.982939765072,-0.0811204834146,0.982939765072,-0.0811204834146,0.0161256337578,0.0389452020405
1900000000.0,0.0165090324003,0.0410829908753,0.982452003496,-0.0856019259985,0.982452003496,-0.0856019259985,0.0165090324003,0.0410829908753
2000000000.0,0.0169114549604,0.0432168000204,0.981939678768,-0.0900794677591,0.981939678768,-0.0900794677591,0.0169114549604,0.0432168000204
2100000000.0,0.0173329006455,0.0453464366491,0.981402789109,-0.0945529177503,0.981402789109,-0.0945529177503,0.0173329006455,0.0453464366491
2200000000.0,0.0177733606365,0.047471708226,0.980841340665,-0.099022085217,0.980841340665,-0.099022085217,0.0177733606365,0.047471708226
2300000000.0,0.0182328190193,0.0495924225911,0.980255346571,-0.103486779684,0.980255346571,-0.103486779684,0.0182328190193,0.0495924225911
2400000000.0,0.0187112535363,0.0517083880346,0.979644826198,-0.107946811036,0.979644826198,-0.107946811036,0.0187112535363,0.0517083880346
2500000000.0,0.0192086362003,0.0538194133663,0.979009804546,-0.11240198959,0.979009804546,-0.11240198959,0.0192086362003,0.0538194133663
2600000000.0,0.0197249338,0.0559253079777,0.978350311733,-0.116852126159,0.978350311733,-0.116852126159,0.0197249338,0.0559253079777
2700000000.0,0.0202601083211,0.0580258819003,0.97766638258,-0.121297032117,0.97766638258,-0.121297032117,0.0202601083211,0.0580258819003
2800000000.0,0.0208141172996,0.06012094586,0.976958056252,-0.125736519454,0.976958056252,-0.125736519454,0.0208141172996,0.06012094586
2900000000.0,0.0213869141211,0.0622103113276,0.976225375964,-0.130170400826,0.976225375964,-0.130170400826,0.0213869141211,0.0622103113276
3000000000.0,0.0219784482764,0.0642937905665,0.975468388723,-0.134598489612,0.975468388723,-0.134598489612,0.0219784482764,0.0642937905665
3100000000.0,0.0225886655809,0.0663711966783,0.974687145111,-0.139020599956,0.974687145111,-0.139020599956,0.0225886655809,0.0663711966783
3200000000.0,0.0232175083655,0.0684423436457,0.973881699092,-0.143436546812,0.973881699092,-0.143436546812,0.0232175083655,0.0684423436457
3300000000.0,0.0238649156431,0.0705070463742,0.97305210785,-0.147846145988,0.97305210785,-0.147846145988,0.0238649156431,0.0705070463742
3400000000.0,0.0245308232543,0.0725651207306,0.972198431638,-0.152249214191,0.972198431638,-0.152249214191,0.0245308232543,0.0725651207306
3500000000.0,0.025215163998,0.0746163835822,0.971320733653,-0.156645569058,0.971320733653,-0.156645569058,0.025215163998,0.0746163835822
3600000000.0,0.0259178677464,0.0766606528323,0.970419079918,-0.161035029201,0.970419079918,-0.161035029201,0.0259178677464,0.0766606528323
3700000000.0,0.0266388615492,0.0786977474561,0.96949353918,-0.165417414239,0.96949353918,-0.165417414239,0.0266388615492,0.0786977474561
3800000000.0,0.0273780697273,0.0807274875347,0.968544182814,-0.169792544836,0.968544182814,-0.169792544836,0.0273780697273,0.0807274875347
3900000000.0,0.0281354139584,0.082749694288,0.967571084741,-0.174160242735,0.967571084741,-0.174160242735,0.0281354139584,0.082749694288
4000000000.0,0.0289108133553,0.0847641901071,0.966574321348,-0.178520330788,0.966574321348,-0.178520330788,0.0289108133553,0.0847641901071
4100000000.0,0.0297041845377,0.0867707985849,0.965553971417,-0.18287263299,0.965553971417,-0.18287263299,0.0297041845377,0.0867707985849
4200000000.0,0.0305154416992,0.0887693445469,0.964510116058,-0.187216974512,0.964510116058,-0.187216974512,0.0305154416992,0.0887693445469
4300000000.0,0.0313444966695,0.0907596540802,0.963442838646,-0.191553181726,0.963442838646,-0.191553181726,0.0313444966695,0.0907596540802
4400000000.0,0.0321912589725,0.0927415545624,0.962352224766,-0.195881082239,0.962352224766,-0.195881082239,0.0321912589725,0.0927415545624
4500000000.0,0.0330556358816,0.0947148746888,0.961238362155,-0.200200504919,0.961238362155,-0.200200504919,0.0330556358816,0.0947148746888
4600000000.0,0.0339375324716,0.0966794445005,0.960101340653,-0.204511279922,0.960101340653,-0.204511279922,0.0339375324716,0.0966794445005
4700000000.0,0.0348368516677,0.0986350954097,0.958941252149,-0.208813238722,0.958941252149,-0.208813238722,0.0348368516677,0.0986350954097
4800000000.0,0.0357534942935,0.100581660226,0.957758190541,-0.213106214133,0.957758190541,-0.213106214133,0.0357534942935,0.100581660226
4900000000.0,0.0366873591158,0.102518973182,0.956552251685,-0.217390040338,0.956552251685,-0.217390040338,0.0366873591158,0.102518973182
5000000000.0,0.0376383428885,0.104446869955,0.955323533354,-0.221664552911,0.955323533354,-0.221664552911,0.0376383428885,0.104446869955
5100000000.0,0.0386063403945,0.106365187694,0.954072135194,-0.225929588841,0.954072135194,-0.225929588841,0.0386063403945,0.106365187694
5200000000.0,0.0395912444869,0.108273765042,0.952798158688,-0.230184986559,0.952798158688,-0.230184986559,0.0395912444869,0.108273765042
5300000000.0,0.0405929461287,0.110172442155,0.95150170711,-0.234430585955,0.95150170711,-0.234430585955,0.0405929461287,0.110172442155
5400000000.0,0.0416113344314,0.11206106073,0.950182885492,-0.238666228405,0.950182885492,-0.238666228405,0.0416113344314,0.11206106073
5500000000.0,0.0426462966933,0.11393946402,0.94884180058,-0.24289175679,0.94884180058,-0.24289175679,0.0426462966933,0.11393946402
5600000000.0,0.0436977184362,0.115807496858,0.947478560806,-0.247107015516,0.947478560806,-0.247107015516,0.0436977184362,0.115807496858
5700000000.0,0.0447654834421,0.117665005676,0.946093276241,-0.251311850537,0.946093276241,-0.251311850537,0.0447654834421,0.117665005676
5800000000.0,0.0458494737894,0.119511838525,0.944686058568,-0.25550610937,0.944686058568,-0.25550610937,0.0458494737894,0.119511838525
5900000000.0,0.0469495698877,0.121347845095,0.943257021041,-0.259689641119,0.943257021041,-0.259689641119,0.0469495698877,0.121347845095
6000000000.0,0.0480656505133,0.123172876728,0.941806278454,-0.263862296489,0.941806278454,-0.263862296489,0.0480656505133,0.123172876728
6100000000.0,0.0491975928431,0.124986786442,0.940333947103,-0.268023927808,0.940333947103,-0.268023927808,0.0491975928431,0.124986786442
6200000000.0,0.0503452724894,0.126789428945,0.938840144757,-0.272174389038,0.938840144757,-0.272174389038,0.0503452724894,0.126789428945
6300000000.0,0.0515085635331,0.128580660651,0.937324990618,-0.276313535798,0.937324990618,-0.276313535798,0.0515085635331,0.128580660651
6400000000.0,0.0526873385578,0.130360339697,0.935788605291,-0.280441225375,0.935788605291,-0.280441225375,0.0526873385578,0.130360339697
6500000000.0,0.0538814686825,0.132128325958,0.934231110753,-0.284557316743,0.934231110753,-0.284557316743,0.0538814686825,0.132128325958
6600000000.0,0.0550908235951,0.133884481063,0.932652630315,-0.288661670575,0.932652630315,-0.288661670575,0.0550908235951,0.133884481063
6700000000.0,0.0563152715848,0.135628668406,0.931053288592,-0.292754149256,0.931053288592,-0.292754149256,0.0563152715848,0.135628668406
6800000000.0,0.0575546795753,0.137360753163,0.929433211471,-0.296834616903,0.929433211471,-0.296834616903,0.0575546795753,0.137360753163
6900000000.0,0.0588089131567,0.139080602304,0.927792526079,-0.300902939371,0.927792526079,-0.300902939371,0.0588089131567,0.139080602304
7000000000.0,0.0600778366177,0.140788084604,0.926131360745,-0.304958984268,0.926131360745,-0.304958984268,0.0600778366177,0.140788084604
7100000000.0,0.0613613129785,0.142483070658,0.924449844978,-0.309002620967,0.924449844978,-0.309002620967,0.0613613129785,0.142483070658
7200000000.0,0.0626592040218,0.144165432889,0.922748109427,-0.313033720618,0.922748109427,-0.313033720618,0.0626592040218,0.144165432889
7300000000.0,0.0639713703253,0.145835045563,0.921026285849,-0.317052156158,0.921026285849,-0.317052156158,0.0639713703253,0.145835045563
7400000000.0,0.0652976712932,0.147491784794,0.919284507086,-0.321057802321,0.919284507086,-0.321057802321,0.0652976712932,0.147491784794
7500000000.0,0.0666379651877,0.149135528559,0.917522907021,-0.325050535647,0.917522907021,-0.325050535647,0.0666379651877,0.149135528559
7600000000.0,0.0679921091607,0.150766156704,0.915741620558,-0.329030234492,0.915741620558,-0.329030234492,0.0679921091607,0.150766156704
7700000000.0,0.0693599592846,0.152383550955,0.913940783584,-0.332996779038,0.913940783584,-0.332996779038,0.0693599592846,0.152383550955
7800000000.0,0.0707413705842,0.153987594924,0.912120532938,-0.336950051297,0.912120532938,-0.336950051297,0.0707413705842,0.153987594924
7900000000.0,0.0721361970673,0.155578174117,0.910281006384,-0.340889935124,0.910281006384,-0.340889935124,0.0721361970673,0.155578174117
8000000000.0,0.0735442917558,0.157155175943,0.908422342574,-0.344816316216,0.908422342574,-0.344816316216,0.0735442917558,0.157155175943
8100000000.0,0.0749655067167,0.158718489719,0.906544681025,-0.348729082128,0.906544681025,-0.348729082128,0.0749655067167,0.158718489719
8200000000.0,0.0763996930924,0.160268006676,0.904648162081,-0.35262812227,0.904648162081,-0.35262812227,0.0763996930924,0.160268006676
8300000000.0,0.0778467011318,0.161803619967,0.902732926885,-0.35651332792,0.902732926885,-0.35651332792,0.0778467011318,0.161803619967
8400000000.0,0.0793063802205,0.163325224667,0.90079911735,-0.360384592221,0.90079911735,-0.360384592221,0.0793063802205,0.163325224667
8500000000.0,0.080778578911,0.164832717783,0.898846876127,-0.364241810192,0.898846876127,-0.364241810192,0.080778578911,0.164832717783
8600000000.0,0.0822631449532,0.166325998256,0.896876346575,-0.36808487873,0.896876346575,-0.36808487873,0.0822631449532,0.166325998256
8700000000.0,0.0837599253242,0.167804966961,0.894887672732,-0.371913696608,0.894887672732,-0.371913696608,0.0837599253242,0.167804966961
8800000000.0,0.0852687662584,0.169269526718,0.892880999283,-0.375728164487,0.892880999283,-0.375728164487,0.0852687662584,0.169269526718
8900000000.0,0.086789513277,0.170719582287,0.890856471531,-0.379528184911,0.890856471531,-0.379528184911,0.086789513277,0.170719582287
9000000000.0,0.088322011218,0.172155040374,0.88881423537,-0.38331366231,0.88881423537,-0.38331366231,0.0883220112181,0.172155040374
9100000000.0,0.0898661042653,0.173575809631,0.886754437251,-0.387084503005,0.886754437251,-0.387084503005,0.0898661042653,0.173575809631
9200000000.0,0.091421635978,0.174981800659,0.884677224157,-0.390840615203,0.884677224157,-0.390840615203,0.091421635978,0.174981800659
9300000000.0,0.0929884493197,0.176372926005,0.882582743569,-0.394581909005,0.882582743569,-0.394581909005,0.0929884493197,0.176372926005
9400000000.0,0.0945663866874,0.177749100167,0.880471143442,-0.398308296397,0.880471143442,-0.398308296397,0.0945663866874,0.177749100167
9500000000.0,0.0961552899401,0.179110239591,0.878342572174,-0.402019691255,0.878342572174,-0.402019691255,0.0961552899401,0.179110239591
9600000000.0,0.0977550004277,0.18045626267,0.876197178576,-0.405716009343,0.876197178576,-0.405716009343,0.0977550004277,0.18045626267
9700000000.0,0.099365359019,0.181787089743,0.874035111846,-0.409397168311,0.874035111846,-0.409397168311,0.099365359019,0.181787089743
9800000000.0,0.10098620613,0.183102643095,0.871856521539,-0.413063087692,0.871856521539,-0.413063087692,0.10098620613,0.183102643095
9900000000.0,0.102617381753,0.184402846953,0.869661557539,-0.416713688903,0.869661557539,-0.416713688903,0.102617381753,0.184402846953
10000000000.0,0.104258725481,0.185687627484,0.867450370034,-0.420348895236,0.867450370034,-0.420348895236,0.104258725481,0.185687627484
