freq (GHz),S11_real,S11_imag,S21_real,S21_imag,S12_real,S12_imag,S22_real,S22_imag
100000000.0,0.00186724104967,0.000217447977407,0.99813046083,-0.00113701734889,0.99813046083,-0.00113701734889,0.00186724104967,0.000217447977407
200000000.0,0.00187997034738,0.00043486116722,0.998115587253,-0.00227400297285,0.998115587253,-0.00227400297285,0.00187997034738,0.00043486116722
300000000.0,0.00188989551522,0.000652251499817,0.998102671621,-0.00341097092474,0.998102671621,-0.00341097092474,0.00188989551522,0.000652251499817
400000000.0,0.00189863722437,0.000869622192388,0.998090093227,-0.00454792593261,0.998090093227,-0.00454792593261,0.00189863722437,0.000869622192388
500000000.0,0.0019068198007,0.00108697447016,0.998077227705,-0.0056848704263,0.998077227705,-0.0056848704263,0.0019068198007,0.00108697447016
600000000.0,0.00191476171988,0.00130430868987,0.998063756537,-0.00682180576873,0.998063756537,-0.00682180576873,0.00191476171988,0.00130430868987
700000000.0,0.00192265114808,0.00152162474042,0.998049491508,-0.00795873271015,0.998049491508,-0.00795873271015,0.00192265114808,0.00152162474042
800000000.0,0.00193061001146,0.00173892222646,0.998034310638,-0.00909565160531,0.998034310638,-0.00909565160531,0.00193061001146,0.00173892222646
900000000.0,0.00193872252416,0.00195620056674,0.998018129657,-0.0102325625325,0.998018129657,-0.0102325625325,0.00193872252416,0.00195620056674
1000000000.0,0.00194704964885,0.00217345905138,0.998000887542,-0.0113694653661,0.998000887542,-0.0113694653661,0.00194704964885,0.00217345905138
1100000000.0,0.00195563713544,0.00239069687815,0.997982538481,-0.012506359824,0.997982538481,-0.012506359824,0.00195563713544,0.00239069687815
1200000000.0,0.00196452031116,0.00260791317642,0.997963047078,-0.0136432454997,0.997963047078,-0.0136432454997,0.00196452031116,0.00260791317642
1300000000.0,0.00197372709436,0.00282510702357,0.997942385345,-0.0147801218857,0.997942385345,-0.0147801218857,0.00197372709436,0.00282510702357
1400000000.0,0.0019832799754,0.00304227745703,0.997920530719,-0.0159169883906,0.997920530719,-0.0159169883906,0.0019832799754,0.00304227745703
1500000000.0,0.00199319736657,0.00325942348283,0.997897464712,-0.017053844352,0.997897464712,-0.017053844352,0.00199319736657,0.00325942348283
1600000000.0,0.0020034945501,0.0034765440821,0.997873171962,-0.0181906890468,0.997873171962,-0.0181906890468,0.0020034945501,0.0034765440821
1700000000.0,0.0020141843614,0.00369363821617,0.997847639554,-0.0193275216991,0.997847639554,-0.0193275216991,0.0020141843614,0.00369363821617
1800000000.0,0.00202527769247,0.0039107048303,0.99782085651,-0.0204643414869,0.99782085651,-0.0204643414869,0.00202527769247,0.0039107048303
1900000000.0,0.00203678387,0.00412774285694,0.997792813419,-0.0216011475469,0.997792813419,-0.0216011475469,0.00203678387,0.00412774285694
2000000000.0,0.00204871094429,0.00434475121796,0.99776350214,-0.0227379389796,0.99776350214,-0.0227379389796,0.00204871094429,0.00434475121796
2100000000.0,0.00206106591337,0.00456172882681,0.997732915585,-0.0238747148526,0.997732915585,-0.0238747148526,0.00206106591337,0.00456172882681
2200000000.0,0.00207385489909,0.00477867459006,0.997701047539,-0.0250114742035,0.997701047539,-0.0250114742035,0.00207385489909,0.00477867459006
2300000000.0,0.00208708328732,0.00499558740876,0.99766789252,-0.0261482160432,0.99766789252,-0.0261482160432,0.00208708328732,0.00499558740876
2400000000.0,0.00210075584069,0.00521246617951,0.997633445669,-0.0272849393576,0.997633445669,-0.0272849393576,0.00210075584069,0.00521246617951
2500000000.0,0.00211487679013,0.00542930979541,0.997597702654,-0.0284216431101,0.997597702654,-0.0284216431101,0.00211487679013,0.00542930979541
2600000000.0,0.00212944990997,0.00564611714688,0.997560659599,-0.0295583262427,0.997560659599,-0.0295583262427,0.00212944990997,0.00564611714688
2700000000.0,0.00214447857998,0.00586288712221,0.997522313023,-0.0306949876785,0.997522313023,-0.0306949876785,0.00214447857998,0.00586288712221
2800000000.0,0.00215996583702,0.00607961860823,0.997482659782,-0.0318316263222,0.997482659782,-0.0318316263222,0.00215996583702,0.00607961860823
2900000000.0,0.00217591441839,0.00629631049071,0.997441697031,-0.0329682410616,0.997441697031,-0.0329682410616,0.00217591441839,0.00629631049071
3000000000.0,0.00219232679838,0.00651296165483,0.997399422189,-0.0341048307689,0.997399422189,-0.0341048307689,0.00219232679838,0.00651296165483
3100000000.0,0.00220920521935,0.00672957098546,0.997355832902,-0.0352413943014,0.997355832902,-0.0352413943014,0.00220920521935,0.00672957098546
3200000000.0,0.00222655171823,0.00694613736754,0.997310927021,-0.0363779305025,0.997310927021,-0.0363779305025,0.00222655171823,0.00694613736754
3300000000.0,0.00224436814927,0.00716265968628,0.997264702578,-0.0375144382025,0.997264702578,-0.0375144382025,0.00224436814927,0.00716265968628
3400000000.0,0.00226265620372,0.00737913682744,0.997217157767,-0.0386509162193,0.997217157767,-0.0386509162193,0.00226265620372,0.00737913682744
3500000000.0,0.00228141742677,0.00759556767746,0.997168290925,-0.039787363359,0.997168290925,-0.039787363359,0.00228141742677,0.00759556767746
3600000000.0,0.00230065323244,0.00781195112371,0.99711810052,-0.0409237784166,0.99711810052,-0.0409237784166,0.00230065323244,0.00781195112371
3700000000.0,0.00232036491641,0.0080282860546,0.997066585136,-0.0420601601766,0.997066585136,-0.0420601601766,0.00232036491641,0.0080282860546
3800000000.0,0.00234055366747,0.00824457135969,0.997013743465,-0.0431965074133,0.997013743465,-0.0431965074133,0.00234055366747,0.00824457135969
3900000000.0,0.00236122057743,0.00846080592987,0.99695957429,-0.0443328188915,0.99695957429,-0.0443328188915,0.00236122057743,0.00846080592987
4000000000.0,0.00238236664995,0.00867698865737,0.996904076486,-0.0454690933668,0.996904076486,-0.0454690933668,0.00238236664995,0.00867698865737
4100000000.0,0.00240399280838,0.00889311843593,0.996847249003,-0.046605329586,0.996847249003,-0.046605329586,0.00240399280838,0.00889311843593
4200000000.0,0.00242609990269,0.00910919416085,0.996789090866,-0.0477415262874,0.996789090866,-0.0477415262874,0.00242609990269,0.00910919416085
4300000000.0,0.00244868871564,0.00932521472902,0.996729601163,-0.0488776822016,0.996729601163,-0.0488776822016,0.00244868871564,0.00932521472902
4400000000.0,0.00247175996833,0.00954117903904,0.996668779045,-0.0500137960511,0.996668779045,-0.0500137960511,0.00247175996833,0.00954117903904
4500000000.0,0.00249531432515,0.00975708599121,0.996606623718,-0.0511498665512,0.996606623718,-0.0511498665512,0.00249531432515,0.00975708599121
4600000000.0,0.00251935239825,0.00997293448763,0.996543134438,-0.05228589241,0.996543134438,-0.05228589241,0.00251935239825,0.00997293448763
4700000000.0,0.00254387475151,0.0101887234322,0.99647831051,-0.0534218723287,0.99647831051,-0.0534218723287,0.00254387475151,0.0101887234322
4800000000.0,0.00256888190419,0.0104044517307,0.99641215128,-0.054557805002,0.99641215128,-0.054557805002,0.00256888190419,0.0104044517307
4900000000.0,0.00259437433419,0.0106201182907,0.996344656137,-0.0556936891181,0.996344656137,-0.0556936891181,0.00259437433419,0.0106201182907
5000000000.0,0.00262035248104,0.0108357220217,0.996275824506,-0.0568295233591,0.996275824506,-0.0568295233591,0.00262035248104,0.0108357220217
5100000000.0,0.00264681674853,0.0110512618352,0.996205655847,-0.0579653064011,0.996205655847,-0.0579653064011,0.00264681674853,0.0110512618352
5200000000.0,0.00267376750726,0.0112667366445,0.996134149652,-0.0591010369145,0.996134149652,-0.0591010369145,0.00267376750726,0.0112667366445
5300000000.0,0.00270120509676,0.011482145365,0.996061305443,-0.0602367135641,0.996061305443,-0.0602367135641,0.00270120509676,0.011482145365
5400000000.0,0.00272912982764,0.011697486914,0.99598712277,-0.0613723350093,0.99598712277,-0.0613723350093,0.00272912982764,0.011697486914
5500000000.0,0.00275754198338,0.0119127602107,0.995911601211,-0.0625078999042,0.995911601211,-0.0625078999042,0.00275754198338,0.0119127602107
5600000000.0,0.00278644182208,0.0121279641763,0.995834740366,-0.0636434068981,0.995834740366,-0.0636434068981,0.00278644182208,0.0121279641763
5700000000.0,0.002815829578,0.0123430977341,0.995756539859,-0.0647788546351,0.995756539859,-0.0647788546351,0.002815829578,0.0123430977341
5800000000.0,0.00284570546303,0.0125581598093,0.995676999336,-0.0659142417547,0.995676999336,-0.0659142417547,0.00284570546303,0.0125581598093
5900000000.0,0.00287606966802,0.0127731493291,0.995596118462,-0.0670495668917,0.995596118462,-0.0670495668917,0.00287606966802,0.0127731493291
6000000000.0,0.00290692236396,0.0129880652226,0.995513896923,-0.0681848286764,0.995513896923,-0.0681848286764,0.00290692236396,0.0129880652226
6100000000.0,0.00293826370317,0.0132029064211,0.995430334422,-0.0693200257348,0.995430334422,-0.0693200257348,0.00293826370317,0.0132029064211
6200000000.0,0.0029700938203,0.0134176718577,0.995345430678,-0.0704551566885,0.995345430678,-0.0704551566885,0.0029700938203,0.0134176718577
6300000000.0,0.00300241283333,0.0136323604677,0.995259185427,-0.0715902201551,0.995259185427,-0.0715902201551,0.00300241283333,0.0136323604677
6400000000.0,0.00303522084441,0.013846971188,0.99517159842,-0.0727252147481,0.99517159842,-0.0727252147481,0.00303522084441,0.013846971188
6500000000.0,0.00306851794077,0.0140615029579,0.995082669421,-0.073860139077,0.995082669421,-0.073860139077,0.00306851794077,0.0140615029579
6600000000.0,0.00310230419543,0.0142759547185,0.994992398211,-0.0749949917478,0.994992398211,-0.0749949917478,0.00310230419543,0.0142759547185
6700000000.0,0.00313657966793,0.0144903254128,0.99490078458,-0.0761297713623,0.99490078458,-0.0761297713623,0.00313657966793,0.0144903254128
6800000000.0,0.00317134440501,0.0147046139859,0.994807828332,-0.077264476519,0.994807828332,-0.077264476519,0.00317134440501,0.0147046139859
6900000000.0,0.00320659844124,0.0149188193847,0.994713529282,-0.0783991058127,0.994713529282,-0.0783991058127,0.00320659844124,0.0149188193847
7000000000.0,0.00324234179956,0.0151329405582,0.994617887257,-0.0795336578348,0.994617887257,-0.0795336578348,0.00324234179956,0.0151329405582
7100000000.0,0.00327857449187,0.0153469764574,0.994520902094,-0.0806681311734,0.994520902094,-0.0806681311734,0.00327857449187,0.0153469764574
7200000000.0,0.0033152965195,0.0155609260349,0.994422573639,-0.081802524413,0.994422573639,-0.081802524413,0.0033152965195,0.0155609260349
7300000000.0,0.00335250787372,0.0157747882456,0.994322901749,-0.0829368361352,0.994322901749,-0.0829368361352,0.00335250787372,0.0157747882456
7400000000.0,0.00339020853613,0.0159885620462,0.994221886289,-0.0840710649184,0.994221886289,-0.0840710649184,0.00339020853613,0.0159885620462
7500000000.0,0.00342839847913,0.0162022463952,0.994119527133,-0.0852052093377,0.994119527133,-0.0852052093377,0.00342839847913,0.0162022463952
7600000000.0,0.00346707766629,0.0164158402531,0.994015824165,-0.0863392679653,0.994015824165,-0.0863392679653,0.00346707766629,0.0164158402531
7700000000.0,0.00350624605268,0.0166293425823,0.993910777275,-0.0874732393706,0.993910777275,-0.0874732393706,0.00350624605268,0.0166293425823
7800000000.0,0.00354590358529,0.016842752347,0.993804386361,-0.08860712212,0.993804386361,-0.08860712212,0.00354590358529,0.016842752347
7900000000.0,0.00358605020329,0.0170560685134,0.993696651329,-0.0897409147771,0.993696651329,-0.0897409147771,0.00358605020329,0.0170560685134
8000000000.0,0.00362668583834,0.0172692900496,0.993587572091,-0.0908746159026,0.993587572091,-0.0908746159026,0.00362668583834,0.0172692900496
8100000000.0,0.00366781041492,0.0174824159253,0.993477148567,-0.0920082240547,0.993477148567,-0.0920082240547,0.00366781041492,0.0174824159253
8200000000.0,0.00370942385055,0.0176954451122,0.993365380684,-0.0931417377888,0.993365380684,-0.0931417377888,0.00370942385055,0.0176954451122
8300000000.0,0.00375152605607,0.017908376584,0.993252268374,-0.0942751556579,0.993252268374,-0.0942751556579,0.00375152605607,0.017908376584
8400000000.0,0.00379411693588,0.018121209316,0.993137811575,-0.0954084762123,0.993137811575,-0.0954084762123,0.00379411693588,0.018121209316
8500000000.0,0.00383719638815,0.0183339422854,0.993022010231,-0.0965416979997,0.993022010231,-0.0965416979997,0.00383719638815,0.0183339422854
8600000000.0,0.00388076430507,0.0185465744711,0.992904864293,-0.0976748195657,0.992904864293,-0.0976748195657,0.00388076430507,0.0185465744711
8700000000.0,0.00392482057299,0.0187591048541,0.992786373717,-0.0988078394533,0.992786373717,-0.0988078394533,0.00392482057299,0.0187591048541
8800000000.0,0.00396936507271,0.0189715324168,0.992666538462,-0.0999407562031,0.992666538462,-0.0999407562031,0.00396936507271,0.0189715324168
8900000000.0,0.00401439767954,0.0191838561437,0.992545358496,-0.101073568354,0.992545358496,-0.101073568354,0.00401439767954,0.0191838561437
9000000000.0,0.00405991826358,0.0193960750208,0.992422833789,-0.102206274441,0.992422833789,-0.102206274441,0.00405991826358,0.0193960750208
9100000000.0,0.00410592668983,0.0196081880362,0.992298964316,-0.103338872998,0.992298964316,-0.103338872998,0.00410592668983,0.0196081880362
9200000000.0,0.00415242281834,0.0198201941794,0.99217375006,-0.104471362559,0.99217375006,-0.104471362559,0.00415242281834,0.0198201941794
9300000000.0,0.00419940650438,0.0200320924418,0.992047191003,-0.105603741651,0.992047191003,-0.105603741651,0.00419940650438,0.0200320924418
9400000000.0,0.00424687759857,0.0202438818166,0.991919287136,-0.106736008802,0.991919287136,-0.106736008802,0.00424687759857,0.0202438818166
9500000000.0,0.00429483594701,0.0204555612986,0.991790038453,-0.107868162539,0.991790038453,-0.107868162539,0.00429483594701,0.0204555612986
9600000000.0,0.00434328139142,0.0206671298843,0.991659444952,-0.109000201384,0.991659444952,-0.109000201384,0.00434328139142,0.0206671298843
9700000000.0,0.00439221376923,0.0208785865721,0.991527506634,-0.110132123859,0.991527506634,-0.110132123859,0.00439221376923,0.0208785865721
9800000000.0,0.00444163291372,0.0210899303618,0.991394223506,-0.111263928483,0.991394223506,-0.111263928483,0.00444163291372,0.0210899303618
9900000000.0,0.00449153865414,0.0213011602551,0.991259595577,-0.112395613775,0.991259595577,-0.112395613775,0.00449153865414,0.0213011602551
10000000000.0,0.00454193081578,0.0215122752553,0.991123622862,-0.113527178249,0.991123622862,-0.113527178249,0.00454193081578,0.0215122752553
