freq (GHz),S11_real,S11_imag,S21_real,S21_imag,S12_real,S12_imag,S22_real,S22_imag
100000000.0,0.00055626095936,0.000310842666762,0.999441160601,-0.0013796753392,0.999441160601,-0.0013796753392,0.000556260959359,0.000310842666762
200000000.0,0.000560773824118,0.000621666815125,0.999433926546,-0.00275936907627,0.999433926546,-0.00275936907627,0.000560773824118,0.000621666815125
300000000.0,0.000565166173461,0.000932472943519,0.999425670041,-0.00413910099554,0.999425670041,-0.00413910099554,0.000565166173461,0.000932472943519
400000000.0,0.000569920559323,0.00124325901608,0.999415908259,-0.00551888343925,0.999415908259,-0.00551888343925,0.000569920559323,0.00124325901608
500000000.0,0.00057522264896,0.00155402267255,0.999404455209,-0.00689872589536,0.999404455209,-0.00689872589536,0.00057522264896,0.00155402267255
600000000.0,0.000581167046522,0.00186476153742,0.999391215921,-0.00827863615097,0.999391215921,-0.00827863615097,0.000581167046522,0.00186476153742
700000000.0,0.000587809588783,0.00217547331019,0.999376134158,-0.00965862081671,0.999376134158,-0.00965862081671,0.000587809588783,0.00217547331019
800000000.0,0.000595186422509,0.00248615579605,0.999359173338,-0.0110386856211,0.999359173338,-0.0110386856211,0.000595186422509,0.00248615579605
900000000.0,0.000603322494747,0.00279680691603,0.999340308052,-0.0124188355959,0.999340308052,-0.0124188355959,0.000603322494747,0.00279680691603
1000000000.0,0.000612235854516,0.00310742470895,0.99931951976,-0.0137990752026,0.99931951976,-0.0137990752026,0.000612235854516,0.00310742470895
1100000000.0,0.000621940043064,0.00341800732922,0.999296794408,-0.0151794084234,0.999296794408,-0.0151794084234,0.000621940043064,0.00341800732922
1200000000.0,0.000632445517604,0.0037285530436,0.999272121005,-0.0165598388299,0.999272121005,-0.0165598388299,0.000632445517604,0.0037285530436
1300000000.0,0.000643760546758,0.00403906022672,0.999245490727,-0.0179403696359,0.999245490727,-0.0179403696359,0.000643760546759,0.00403906022672
1400000000.0,0.000655891798934,0.0043495273569,0.999216896334,-0.0193210037399,0.999216896334,-0.0193210037399,0.000655891798934,0.0043495273569
1500000000.0,0.000668844743166,0.00465995301164,0.999186331767,-0.0207017437592,0.999186331767,-0.0207017437592,0.000668844743166,0.00465995301164
1600000000.0,0.000682623930592,0.00497033586344,0.999153791872,-0.0220825920584,0.999153791872,-0.0220825920584,0.000682623930592,0.00497033586344
1700000000.0,0.000697233197269,0.00528067467562,0.999119272195,-0.0234635507735,0.999119272195,-0.0234635507735,0.000697233197269,0.00528067467562
1800000000.0,0.000712675813612,0.00559096829863,0.999082768835,-0.0248446218318,0.999082768835,-0.0248446218318,0.000712675813612,0.00559096829863
1900000000.0,0.000728954596657,0.0059012156662,0.999044278334,-0.0262258069698,0.999044278334,-0.0262258069698,0.000728954596657,0.0059012156662
2000000000.0,0.000746071995848,0.00621141579204,0.999003797591,-0.0276071077478,0.999003797591,-0.0276071077478,0.000746071995848,0.00621141579204
2100000000.0,0.000764030159605,0.00652156776646,0.998961323795,-0.0289885255639,0.998961323795,-0.0289885255639,0.000764030159605,0.00652156776646
2200000000.0,0.00078283098767,0.00683167075338,0.998916854379,-0.030370061665,0.998916854379,-0.030370061665,0.00078283098767,0.00683167075338
2300000000.0,0.000802476172789,0.00714172398735,0.99887038697,-0.0317517171577,0.99887038697,-0.0317517171577,0.000802476172788,0.00714172398735
2400000000.0,0.000822967234259,0.00745172677081,0.998821919367,-0.0331334930175,0.998821919367,-0.0331334930175,0.000822967234259,0.00745172677081
2500000000.0,0.000844305545211,0.00776167847151,0.998771449506,-0.034515390097,0.998771449506,-0.034515390097,0.000844305545211,0.00776167847151
2600000000.0,0.000866492354994,0.00807157852,0.998718975441,-0.0358974091337,0.998718975441,-0.0358974091337,0.000866492354994,0.00807157852
2700000000.0,0.000889528807707,0.00838142640729,0.998664495329,-0.0372795507565,0.998664495329,-0.0372795507565,0.000889528807707,0.00838142640729
2800000000.0,0.000913415957643,0.00869122168265,0.99860800741,-0.0386618154923,0.99860800741,-0.0386618154923,0.000913415957643,0.00869122168265
2900000000.0,0.000938154782284,0.00900096395144,0.99854951,-0.0400442037714,0.99854951,-0.0400442037714,0.000938154782284,0.00900096395144
3000000000.0,0.00096374619327,0.0093106528731,0.998489001474,-0.0414267159329,0.998489001474,-0.0414267159329,0.00096374619327,0.0093106528731
3100000000.0,0.000990191045742,0.00962028815928,0.998426480267,-0.0428093522294,0.998426480267,-0.0428093522294,0.000990191045742,0.00962028815928
3200000000.0,0.00101749014635,0.00992986957191,0.998361944854,-0.0441921128315,0.998361944854,-0.0441921128315,0.00101749014635,0.00992986957191
3300000000.0,0.00104564426012,0.0102393969215,0.998295393756,-0.0455749978318,0.998295393756,-0.0455749978318,0.00104564426012,0.0102393969215
3400000000.0,0.00107465411644,0.0105488700655,0.998226825525,-0.0469580072487,0.998226825525,-0.0469580072487,0.00107465411644,0.0105488700655
3500000000.0,0.00110452041418,0.0108582889066,0.998156238744,-0.0483411410301,0.998156238744,-0.0483411410301,0.00110452041418,0.0108582889066
3600000000.0,0.00113524382628,0.0111676533912,0.998083632023,-0.0497243990563,0.998083632023,-0.0497243990563,0.00113524382628,0.0111676533912
3700000000.0,0.00116682500367,0.011476963508,0.998009003992,-0.0511077811436,0.998009003992,-0.0511077811436,0.00116682500367,0.011476963508
3800000000.0,0.00119926457878,0.0117862192866,0.997932353304,-0.0524912870466,0.997932353304,-0.0524912870466,0.00119926457878,0.0117862192866
3900000000.0,0.0012325631686,0.0120954207961,0.997853678624,-0.0538749164612,0.997853678624,-0.0538749164612,0.0012325631686,0.0120954207961
4000000000.0,0.00126672137747,0.0124045681437,0.997772978635,-0.0552586690269,0.997772978635,-0.0552586690269,0.00126672137747,0.0124045681437
4100000000.0,0.00130173979946,0.0127136614736,0.99769025203,-0.0566425443294,0.99769025203,-0.0566425443294,0.00130173979946,0.0127136614736
4200000000.0,0.00133761902059,0.0130227009657,0.997605497512,-0.0580265419026,0.997605497512,-0.0580265419026,0.00133761902059,0.0130227009657
4300000000.0,0.00137435962077,0.0133316868346,0.997518713793,-0.0594106612307,0.997518713793,-0.0594106612307,0.00137435962077,0.0133316868346
4400000000.0,0.00141196217553,0.0136406193281,0.997429899594,-0.0607949017503,0.997429899594,-0.0607949017503,0.00141196217553,0.0136406193281
4500000000.0,0.00145042725765,0.0139494987265,0.997339053638,-0.0621792628518,0.997339053638,-0.0621792628518,0.00145042725765,0.0139494987265
4600000000.0,0.00148975543855,0.0142583253416,0.997246174656,-0.0635637438818,0.997246174656,-0.0635637438818,0.00148975543855,0.0142583253416
4700000000.0,0.00152994728962,0.0145670995152,0.997151261381,-0.0649483441441,0.997151261381,-0.0649483441441,0.00152994728962,0.0145670995152
4800000000.0,0.00157100338336,0.0148758216186,0.997054312549,-0.0663330629018,0.997054312549,-0.0663330629018,0.00157100338336,0.0148758216186
4900000000.0,0.00161292429449,0.0151844920515,0.996955326897,-0.0677178993784,0.996955326897,-0.0677178993784,0.00161292429449,0.0151844920515
5000000000.0,0.00165571060091,0.0154931112412,0.996854303165,-0.0691028527591,0.996854303165,-0.0691028527591,0.00165571060091,0.0154931112412
5100000000.0,0.0016993628846,0.0158016796416,0.996751240092,-0.0704879221924,0.996751240092,-0.0704879221924,0.0016993628846,0.0158016796416
5200000000.0,0.00174388173246,0.0161101977322,0.996646136417,-0.0718731067914,0.996646136417,-0.0718731067914,0.00174388173246,0.0161101977322
5300000000.0,0.00178926773703,0.0164186660177,0.996538990878,-0.0732584056346,0.996538990878,-0.0732584056346,0.00178926773703,0.0164186660177
5400000000.0,0.00183552149725,0.0167270850268,0.996429802214,-0.0746438177672,0.996429802214,-0.0746438177672,0.00183552149725,0.0167270850268
5500000000.0,0.00188264361902,0.0170354553118,0.996318569159,-0.0760293422024,0.996318569159,-0.0760293422024,0.00188264361902,0.0170354553118
5600000000.0,0.00193063471587,0.0173437774473,0.996205290448,-0.0774149779219,0.996205290448,-0.0774149779219,0.00193063471587,0.0173437774473
5700000000.0,0.00197949540947,0.0176520520303,0.996089964811,-0.0788007238774,0.996089964811,-0.0788007238774,0.00197949540947,0.0176520520303
5800000000.0,0.00202922633016,0.0179602796785,0.995972590976,-0.0801865789911,0.995972590976,-0.0801865789911,0.00202922633016,0.0179602796785
5900000000.0,0.00207982811741,0.0182684610305,0.995853167669,-0.0815725421567,0.995853167669,-0.0815725421567,0.00207982811741,0.0182684610305
6000000000.0,0.00213130142028,0.0185765967448,0.995731693612,-0.0829586122404,0.995731693612,-0.0829586122404,0.00213130142028,0.0185765967448
6100000000.0,0.00218364689781,0.0188846874988,0.995608167524,-0.0843447880814,0.995608167524,-0.0843447880814,0.00218364689781,0.0188846874988
6200000000.0,0.00223686521943,0.0191927339887,0.995482588118,-0.0857310684925,0.995482588118,-0.0857310684925,0.00223686521943,0.0191927339887
6300000000.0,0.00229095706529,0.0195007369288,0.995354954105,-0.0871174522616,0.995354954105,-0.0871174522616,0.00229095706529,0.0195007369288
6400000000.0,0.00234592312664,0.0198086970506,0.995225264192,-0.0885039381513,0.995225264192,-0.0885039381513,0.00234592312664,0.0198086970506
6500000000.0,0.00240176410611,0.0201166151024,0.99509351708,-0.0898905249003,0.99509351708,-0.0898905249003,0.00240176410611,0.0201166151024
6600000000.0,0.002458480718,0.020424491849,0.994959711467,-0.0912772112237,0.994959711467,-0.0912772112237,0.002458480718,0.020424491849
6700000000.0,0.0025160736886,0.0207323280706,0.994823846044,-0.0926639958138,0.994823846044,-0.0926639958138,0.0025160736886,0.0207323280706
6800000000.0,0.00257454375643,0.0210401245627,0.994685919501,-0.0940508773402,0.994685919501,-0.0940508773402,0.00257454375643,0.0210401245627
6900000000.0,0.00263389167245,0.0213478821355,0.994545930518,-0.0954378544509,0.994545930518,-0.0954378544509,0.00263389167245,0.0213478821355
7000000000.0,0.00269411820037,0.0216556016132,0.994403877775,-0.0968249257723,0.994403877775,-0.0968249257723,0.00269411820037,0.0216556016132
7100000000.0,0.00275522411681,0.0219632838337,0.994259759943,-0.0982120899099,0.994259759943,-0.0982120899099,0.00275522411681,0.0219632838337
7200000000.0,0.00281721021151,0.0222709296479,0.994113575689,-0.0995993454489,0.994113575689,-0.0995993454489,0.00281721021151,0.0222709296479
7300000000.0,0.00288007728755,0.0225785399197,0.993965323676,-0.100986690954,0.993965323676,-0.100986690954,0.00288007728755,0.0225785399197
7400000000.0,0.00294382616153,0.0228861155248,0.993815002559,-0.102374124971,0.993815002559,-0.102374124971,0.00294382616153,0.0228861155248
7500000000.0,0.00300845766374,0.0231936573509,0.99366261099,-0.103761646026,0.99366261099,-0.103761646026,0.00300845766374,0.0231936573509
7600000000.0,0.00307397263831,0.0235011662969,0.993508147613,-0.105149252625,0.993508147613,-0.105149252625,0.00307397263831,0.0235011662969
7700000000.0,0.00314037194339,0.0238086432725,0.993351611067,-0.106536943258,0.993351611067,-0.106536943258,0.00314037194339,0.0238086432725
7800000000.0,0.0032076564513,0.024116089198,0.993192999988,-0.107924716395,0.993192999988,-0.107924716395,0.0032076564513,0.024116089198
7900000000.0,0.00327582704865,0.0244235050035,0.993032313003,-0.109312570489,0.993032313003,-0.109312570489,0.00327582704865,0.0244235050035
8000000000.0,0.00334488463649,0.0247308916289,0.992869548734,-0.110700503974,0.992869548734,-0.110700503974,0.00334488463649,0.0247308916289
8100000000.0,0.00341483013043,0.0250382500231,0.992704705797,-0.112088515268,0.992704705797,-0.112088515268,0.00341483013043,0.0250382500231
8200000000.0,0.00348566446076,0.0253455811439,0.992537782804,-0.113476602771,0.992537782804,-0.113476602771,0.00348566446076,0.0253455811439
8300000000.0,0.00355738857258,0.0256528859575,0.992368778359,-0.114864764867,0.992368778359,-0.114864764867,0.00355738857258,0.0256528859575
8400000000.0,0.00363000342588,0.025960165438,0.99219769106,-0.116252999923,0.99219769106,-0.116252999923,0.00363000342588,0.025960165438
8500000000.0,0.00370350999568,0.0262674205673,0.992024519502,-0.117641306289,0.992024519502,-0.117641306289,0.00370350999568,0.0262674205673
8600000000.0,0.00377790927208,0.0265746523346,0.991849262269,-0.119029682301,0.991849262269,-0.119029682301,0.00377790927208,0.0265746523346
8700000000.0,0.0038532022604,0.0268818617358,0.991671917944,-0.120418126276,0.991671917944,-0.120418126276,0.0038532022604,0.0268818617358
8800000000.0,0.00392938998124,0.0271890497735,0.991492485101,-0.121806636518,0.991492485101,-0.121806636518,0.00392938998124,0.0271890497735
8900000000.0,0.00400647347057,0.0274962174565,0.991310962309,-0.123195211314,0.991310962309,-0.123195211314,0.00400647347057,0.0274962174565
9000000000.0,0.00408445377981,0.0278033657994,0.991127348131,-0.124583848935,0.991127348131,-0.124583848935,0.00408445377981,0.0278033657994
9100000000.0,0.00416333197591,0.0281104958223,0.990941641124,-0.125972547639,0.990941641124,-0.125972547639,0.00416333197591,0.0281104958223
9200000000.0,0.00424310914141,0.0284176085505,0.990753839839,-0.127361305665,0.990753839839,-0.127361305665,0.0042431091414,0.0284176085505
9300000000.0,0.00432378637451,0.0287247050142,0.99056394282,-0.128750121241,0.99056394282,-0.128750121241,0.00432378637451,0.0287247050142
9400000000.0,0.00440536478914,0.029031786248,0.990371948606,-0.130138992579,0.990371948606,-0.130138992579,0.00440536478914,0.029031786248
9500000000.0,0.00448784551504,0.0293388532907,0.99017785573,-0.131527917875,0.99017785573,-0.131527917875,0.00448784551504,0.0293388532907
9600000000.0,0.00457122969775,0.029645907185,0.989981662718,-0.132916895311,0.989981662718,-0.132916895311,0.00457122969775,0.029645907185
9700000000.0,0.00465551849873,0.0299529489772,0.989783368092,-0.134305923054,0.989783368092,-0.134305923054,0.00465551849873,0.0299529489772
9800000000.0,0.0047407130954,0.0302599797167,0.989582970366,-0.135694999259,0.989582970366,-0.135694999259,0.0047407130954,0.0302599797167
9900000000.0,0.00482681468114,0.0305670004559,0.989380468049,-0.137084122063,0.989380468049,-0.137084122063,0.00482681468114,0.0305670004559
10000000000.0,0.00491382446539,0.0308740122499,0.989175859643,-0.138473289592,0.989175859643,-0.138473289592,0.00491382446539,0.0308740122499
