freq (GHz),S11_real,S11_imag,S21_real,S21_imag,S12_real,S12_imag,S22_real,S22_imag
100000000.0,8.45415606174e-05,-0.00181567907327,0.999900553705,-0.00257821872016,0.999900553705,-0.00257821872016,8.45415606179e-05,-0.00181567907327
200000000.0,6.89919751777e-05,-0.00363144964748,0.99988288839,-0.00515657177787,0.99988288839,-0.00515657177787,6.89919751777e-05,-0.00363144964748
300000000.0,4.39155471177e-05,-0.00544733563483,0.999855433773,-0.00773510707176,0.999855433773,-0.00773510707176,4.39155471177e-05,-0.00544733563483
400000000.0,9.38792432947e-06,-0.00726333968667,0.999818106752,-0.0103138455906,0.999818106752,-0.0103138455906,9.38792432881e-06,-0.00726333968667
500000000.0,-3.45645393396e-05,-0.00907945320359,0.999770872563,-0.0128927943754,0.999770872563,-0.0128927943754,-3.45645393394e-05,-0.00907945320359
600000000.0,-8.7930743673e-05,-0.0108956599411,0.999713711069,-0.015471951093,0.999713711069,-0.015471951093,-8.79307436731e-05,-0.0108956599411
700000000.0,-0.000150706126195,-0.0127119378837,0.999646608281,-0.0180513063945,0.999646608281,-0.0180513063945,-0.000150706126195,-0.0127119378837
800000000.0,-0.000222889436825,-0.0145282603888,0.999569553316,-0.0206308453442,0.999569553316,-0.0206308453442,-0.000222889436825,-0.0145282603888
900000000.0,-0.000304481269478,-0.016344596955,0.999482537082,-0.0232105483771,0.999482537082,-0.0232105483771,-0.000304481269478,-0.016344596955
1000000000.0,-0.000395483293181,-0.0181609137754,0.99938555164,-0.0257903919818,0.99938555164,-0.0257903919818,-0.000395483293181,-0.0181609137754
1100000000.0,-0.000495897805522,-0.0199771741549,0.999278589863,-0.0283703492146,0.999278589863,-0.0283703492146,-0.000495897805522,-0.0199771741549
1200000000.0,-0.000605727451232,-0.0217933388361,0.999161645262,-0.0309503900993,0.999161645262,-0.0309503900993,-0.000605727451233,-0.0217933388361
1300000000.0,-0.000724975032687,-0.0236093662639,0.999034711877,-0.0335304819486,0.999034711877,-0.0335304819486,-0.000724975032687,-0.0236093662639
1400000000.0,-0.000853643374992,-0.0254252128026,0.998897784222,-0.0361105896284,0.998897784222,-0.0361105896284,-0.000853643374992,-0.0254252128026
1500000000.0,-0.000991735225489,-0.0272408329204,0.998750857259,-0.0386906757796,0.998750857259,-0.0386906757796,-0.000991735225489,-0.0272408329204
1600000000.0,-0.00113925317583,-0.0290561793465,0.998593926379,-0.0412707010072,0.998593926379,-0.0412707010072,-0.00113925317583,-0.0290561793465
1700000000.0,-0.00129619959967,-0.0308712032086,0.998426987408,-0.0438506240444,0.998426987408,-0.0438506240444,-0.00129619959967,-0.0308712032086
1800000000.0,-0.00146257660139,-0.0326858541537,0.998250036601,-0.0464304018962,0.998250036601,-0.0464304018962,-0.00146257660139,-0.0326858541537
1900000000.0,-0.00163838597309,-0.0345000804551,0.998063070656,-0.0490099899669,0.998063070656,-0.0490099899669,-0.00163838597309,-0.0345000804551
2000000000.0,-0.00182362915765,-0.0363138291098,0.997866086719,-0.0515893421735,0.997866086719,-0.0515893421735,-0.00182362915765,-0.0363138291098
2100000000.0,-0.00201830721678,-0.0381270459251,0.997659082401,-0.0541684110489,0.997659082401,-0.0541684110489,-0.00201830721678,-0.0381270459251
2200000000.0,-0.00222242080278,-0.0399396755995,0.997442055782,-0.0567471478349,0.997442055782,-0.0567471478349,-0.00222242080278,-0.0399396755995
2300000000.0,-0.00243597013361,-0.0417516617947,0.997215005429,-0.0593255025675,0.997215005429,-0.0593255025675,-0.00243597013361,-0.0417516617947
2400000000.0,-0.00265895497045,-0.0435629472042,0.996977930407,-0.0619034241555,0.996977930407,-0.0619034241555,-0.00265895497045,-0.0435629472042
2500000000.0,-0.00289137459754,-0.0453734736156,0.99673083029,-0.0644808604527,0.99673083029,-0.0644808604527,-0.00289137459754,-0.0453734736156
2600000000.0,-0.00313322780399,-0.0471831819693,0.99647370517,-0.0670577583252,0.99647370517,-0.0670577583252,-0.00313322780399,-0.0471831819693
2700000000.0,-0.0033845128671,-0.0489920124129,0.996206555673,-0.0696340637147,0.996206555673,-0.0696340637147,-0.0033845128671,-0.0489920124129
2800000000.0,-0.00364522753734,-0.0507999043528,0.995929382966,-0.0722097216963,0.995929382966,-0.0722097216963,-0.00364522753734,-0.0507999043528
2900000000.0,-0.00391536902448,-0.0526067965025,0.99564218877,-0.0747846765345,0.99564218877,-0.0747846765345,-0.00391536902448,-0.0526067965025
3000000000.0,-0.00419493398501,-0.0544126269283,0.995344975364,-0.0773588717343,0.995344975364,-0.0773588717343,-0.00419493398501,-0.0544126269283
3100000000.0,-0.00448391851057,-0.0562173330926,0.9950377456,-0.0799322500911,0.9950377456,-0.0799322500911,-0.00448391851057,-0.0562173330926
3200000000.0,-0.00478231811736,-0.0580208518949,0.994720502909,-0.0825047537364,0.994720502909,-0.0825047537364,-0.00478231811736,-0.0580208518949
3300000000.0,-0.00509012773652,-0.0598231197112,0.994393251307,-0.085076324182,0.994393251307,-0.085076324182,-0.00509012773652,-0.0598231197112
3400000000.0,-0.00540734170521,-0.0616240724309,0.994055995405,-0.0876469023622,0.994055995405,-0.0876469023622,-0.00540734170521,-0.0616240724309
3500000000.0,-0.0057339537586,-0.0634236454927,0.993708740413,-0.0902164286735,0.993708740413,-0.0902164286735,-0.0057339537586,-0.0634236454927
3600000000.0,-0.00606995702249,-0.0652217739185,0.993351492149,-0.0927848430124,0.993351492149,-0.0927848430124,-0.00606995702249,-0.0652217739185
3700000000.0,-0.00641534400664,-0.0670183923462,0.992984257043,-0.0953520848124,0.992984257043,-0.0953520848124,-0.00641534400664,-0.0670183923462
3800000000.0,-0.00677010659873,-0.068813435061,0.992607042142,-0.0979180930783,0.992607042142,-0.0979180930783,-0.00677010659873,-0.068813435061
3900000000.0,-0.00713423605891,-0.0706068360254,0.992219855116,-0.10048280642,0.992219855116,-0.10048280642,-0.00713423605891,-0.0706068360254
4000000000.0,-0.00750772301491,-0.072398528908,0.99182270426,-0.103046163084,0.99182270426,-0.103046163084,-0.00750772301491,-0.072398528908
4100000000.0,-0.00789055745768,-0.0741884471119,0.9914155985,-0.105608100984,0.9914155985,-0.105608100984,-0.00789055745768,-0.0741884471119
4200000000.0,-0.00828272873759,-0.075976523801,0.990998547395,-0.108168557734,0.990998547395,-0.108168557734,-0.00828272873759,-0.075976523801
4300000000.0,-0.008684225561,-0.0777626919261,0.990571561142,-0.11072747067,0.990571561142,-0.11072747067,-0.008684225561,-0.0777626919261
4400000000.0,-0.00909503598739,-0.0795468842502,0.990134650575,-0.113284776884,0.990134650575,-0.113284776884,-0.00909503598739,-0.0795468842502
4500000000.0,-0.0095151474269,-0.0813290333722,0.989687827169,-0.115840413248,0.989687827169,-0.115840413248,-0.0095151474269,-0.0813290333722
4600000000.0,-0.00994454663821,-0.0831090717506,0.989231103043,-0.118394316437,0.989231103043,-0.118394316437,-0.00994454663821,-0.0831090717506
4700000000.0,-0.010383219727,-0.0848869317262,0.988764490961,-0.120946422959,0.988764490961,-0.120946422959,-0.010383219727,-0.0848869317262
4800000000.0,-0.0108311521444,-0.0866625455438,0.98828800433,-0.123496669176,0.98828800433,-0.123496669176,-0.0108311521444,-0.0866625455438
4900000000.0,-0.0112883286865,-0.0884358453733,0.987801657205,-0.126044991326,0.987801657205,-0.126044991326,-0.0112883286865,-0.0884358453733
5000000000.0,-0.0117547334934,-0.0902067633308,0.987305464285,-0.128591325548,0.987305464285,-0.128591325548,-0.0117547334934,-0.0902067633308
5100000000.0,-0.0122303500492,-0.091975231498,0.986799440919,-0.131135607901,0.986799440919,-0.131135607901,-0.0122303500492,-0.091975231498
5200000000.0,-0.0127151611818,-0.0937411819419,0.9862836031,-0.133677774387,0.9862836031,-0.133677774387,-0.0127151611818,-0.0937411819419
5300000000.0,-0.0132091490637,-0.0955045467335,0.985757967466,-0.136217760972,0.985757967466,-0.136217760972,-0.0132091490637,-0.0955045467335
5400000000.0,-0.0137122952124,-0.0972652579662,0.985222551303,-0.138755503603,0.985222551303,-0.138755503603,-0.0137122952124,-0.0972652579662
5500000000.0,-0.0142245804914,-0.0990232477732,0.984677372537,-0.141290938228,0.984677372537,-0.141290938228,-0.0142245804914,-0.0990232477732
5600000000.0,-0.0147459851115,-0.100778448345,0.98412244974,-0.143824000818,0.98412244974,-0.143824000818,-0.0147459851115,-0.100778448345
5700000000.0,-0.0152764886323,-0.102530791946,0.983557802122,-0.14635462738,0.983557802122,-0.14635462738,-0.0152764886323,-0.102530791946
5800000000.0,-0.015816069964,-0.104280210932,0.982983449535,-0.148882753977,0.982983449535,-0.148882753977,-0.015816069964,-0.104280210932
5900000000.0,-0.0163647073692,-0.106026637763,0.982399412467,-0.151408316745,0.982399412467,-0.151408316745,-0.0163647073692,-0.106026637763
6000000000.0,-0.0169223784654,-0.107770005022,0.98180571204,-0.153931251911,0.98180571204,-0.153931251911,-0.0169223784654,-0.107770005022
6100000000.0,-0.0174890602273,-0.109510245428,0.981202370009,-0.156451495805,0.981202370009,-0.156451495805,-0.0174890602273,-0.109510245428
6200000000.0,-0.0180647289896,-0.111247291852,0.980589408758,-0.15896898488,0.980589408758,-0.15896898488,-0.0180647289896,-0.111247291852
6300000000.0,-0.0186493604496,-0.11298107733,0.979966851299,-0.161483655723,0.979966851299,-0.161483655723,-0.0186493604496,-0.11298107733
6400000000.0,-0.0192429296708,-0.114711535077,0.979334721266,-0.163995445075,0.979334721266,-0.163995445075,-0.0192429296708,-0.114711535077
6500000000.0,-0.0198454110857,-0.116438598501,0.978693042913,-0.166504289841,0.978693042913,-0.166504289841,-0.0198454110857,-0.116438598501
6600000000.0,-0.0204567784995,-0.118162201216,0.978041841113,-0.169010127105,0.978041841113,-0.169010127105,-0.0204567784995,-0.118162201216
6700000000.0,-0.0210770050936,-0.119882277056,0.97738114135,-0.171512894145,0.97738114135,-0.171512894145,-0.0210770050936,-0.119882277056
6800000000.0,-0.0217060634297,-0.121598760083,0.976710969718,-0.174012528444,0.976710969718,-0.174012528444,-0.0217060634297,-0.121598760083
6900000000.0,-0.0223439254536,-0.123311584606,0.976031352915,-0.176508967706,0.976031352915,-0.176508967706,-0.0223439254536,-0.123311584606
7000000000.0,-0.0229905624995,-0.125020685188,0.975342318241,-0.179002149866,0.975342318241,-0.179002149866,-0.0229905624995,-0.125020685188
7100000000.0,-0.023645945294,-0.126725996657,0.974643893593,-0.181492013103,0.974643893593,-0.181492013103,-0.023645945294,-0.126725996657
7200000000.0,-0.0243100439609,-0.128427454121,0.973936107458,-0.183978495851,0.973936107458,-0.183978495851,-0.0243100439609,-0.128427454121
7300000000.0,-0.0249828280258,-0.130124992977,0.973218988914,-0.186461536812,0.973218988914,-0.186461536812,-0.0249828280258,-0.130124992977
7400000000.0,-0.0256642664206,-0.131818548921,0.972492567618,-0.188941074968,0.972492567618,-0.188941074968,-0.0256642664206,-0.131818548921
7500000000.0,-0.0263543274888,-0.133508057959,0.971756873807,-0.19141704959,0.971756873807,-0.19141704959,-0.0263543274888,-0.133508057959
7600000000.0,-0.02705297899,-0.135193456417,0.971011938291,-0.193889400248,0.971011938291,-0.193889400248,-0.02705297899,-0.135193456417
7700000000.0,-0.0277601881055,-0.136874680952,0.970257792446,-0.196358066824,0.970257792446,-0.196358066824,-0.0277601881055,-0.136874680952
7800000000.0,-0.0284759214433,-0.13855166856,0.969494468212,-0.198822989521,0.969494468212,-0.198822989521,-0.0284759214433,-0.13855166856
7900000000.0,-0.0292001450438,-0.140224356586,0.968721998086,-0.201284108873,0.968721998086,-0.201284108873,-0.0292001450438,-0.140224356586
8000000000.0,-0.0299328243848,-0.141892682734,0.967940415113,-0.203741365752,0.967940415113,-0.203741365752,-0.0299328243848,-0.141892682734
8100000000.0,-0.0306739243877,-0.143556585075,0.96714975289,-0.206194701383,0.96714975289,-0.206194701383,-0.0306739243877,-0.143556585075
8200000000.0,-0.0314234094227,-0.145216002055,0.966350045548,-0.208644057348,0.966350045548,-0.208644057348,-0.0314234094227,-0.145216002055
8300000000.0,-0.0321812433149,-0.146870872504,0.965541327755,-0.211089375596,0.965541327755,-0.211089375596,-0.0321812433149,-0.146870872504
8400000000.0,-0.0329473893501,-0.148521135646,0.964723634709,-0.213530598454,0.964723634709,-0.213530598454,-0.0329473893501,-0.148521135646
8500000000.0,-0.0337218102811,-0.150166731105,0.963897002127,-0.21596766863,0.963897002127,-0.21596766863,-0.0337218102811,-0.150166731105
8600000000.0,-0.0345044683331,-0.151807598912,0.963061466245,-0.21840052923,0.963061466245,-0.21840052923,-0.0345044683331,-0.151807598912
8700000000.0,-0.0352953252109,-0.153443679515,0.962217063807,-0.220829123755,0.962217063807,-0.220829123755,-0.0352953252109,-0.153443679515
8800000000.0,-0.036094342104,-0.155074913785,0.961363832062,-0.223253396118,0.961363832062,-0.223253396118,-0.036094342104,-0.155074913785
8900000000.0,-0.036901479694,-0.156701243023,0.960501808755,-0.225673290645,0.960501808755,-0.225673290645,-0.036901479694,-0.156701243023
9000000000.0,-0.0377166981604,-0.158322608968,0.959631032125,-0.228088752087,0.959631032125,-0.228088752087,-0.0377166981604,-0.158322608968
9100000000.0,-0.0385399571871,-0.159938953802,0.958751540893,-0.230499725624,0.958751540893,-0.230499725624,-0.0385399571871,-0.159938953802
9200000000.0,-0.0393712159693,-0.161550220158,0.957863374258,-0.232906156873,0.957863374258,-0.232906156873,-0.0393712159693,-0.161550220158
9300000000.0,-0.0402104332199,-0.163156351127,0.956966571892,-0.235307991892,0.956966571892,-0.235307991892,-0.0402104332199,-0.163156351127
9400000000.0,-0.0410575671761,-0.164757290262,0.956061173929,-0.237705177194,0.956061173929,-0.237705177194,-0.0410575671761,-0.164757290262
9500000000.0,-0.0419125756065,-0.166352981587,0.955147220964,-0.240097659742,0.955147220964,-0.240097659742,-0.0419125756065,-0.166352981587
9600000000.0,-0.0427754158174,-0.1679433696,0.954224754041,-0.242485386965,0.954224754041,-0.242485386965,-0.0427754158174,-0.1679433696
9700000000.0,-0.0436460446602,-0.169528399278,0.953293814649,-0.244868306759,0.953293814649,-0.244868306759,-0.0436460446602,-0.169528399278
9800000000.0,-0.044524418538,-0.171108016088,0.952354444714,-0.247246367493,0.952354444714,-0.247246367493,-0.044524418538,-0.171108016088
9900000000.0,-0.0454104934124,-0.172682165986,0.951406686592,-0.249619518016,0.951406686592,-0.249619518016,-0.0454104934124,-0.172682165986
10000000000.0,-0.0463042248111,-0.174250795425,0.950450583063,-0.251987707659,0.950450583063,-0.251987707659,-0.0463042248111,-0.174250795425
