freq (GHz),S11_real,S11_imag,S21_real,S21_imag,S12_real,S12_imag,S22_real,S22_imag
100000000.0,0.000385067122505,-0.00781714487598,0.999443812249,-0.00967731978749,0.999443812249,-0.00967731978749,0.000385067122506,-0.00781714487598
200000000.0,0.000152785046115,-0.0156303567548,0.999199969905,-0.0193507444719,0.999199969905,-0.0193507444719,0.000152785046115,-0.0156303567548
300000000.0,-0.000231393303863,-0.0234358732374,0.998802392613,-0.0290165625346,0.998802392613,-0.0290165625346,-0.000231393303863,-0.0234358732374
400000000.0,-0.000766752626038,-0.0312299166193,0.998250983914,-0.038671036371,0.998250983914,-0.038671036371,-0.000766752626038,-0.0312299166193
500000000.0,-0.00145270340818,-0.0390087106264,0.997546020767,-0.0483104260632,0.997546020767,-0.0483104260632,-0.00145270340818,-0.0390087106264
600000000.0,-0.00228860878021,-0.0467684900579,0.996687980226,-0.0579310006376,0.996687980226,-0.0579310006376,-0.00228860878021,-0.0467684900579
700000000.0,-0.00327374111559,-0.0545055082571,0.995677494894,-0.0675290462402,0.995677494894,-0.0675290462402,-0.00327374111559,-0.0545055082571
800000000.0,-0.00440726696011,-0.0622160436108,0.994515335947,-0.077100873018,0.994515335947,-0.077100873018,-0.00440726696011,-0.0622160436108
900000000.0,-0.00568824119093,-0.0698964055019,0.993202404726,-0.0866428213088,0.993202404726,-0.0866428213088,-0.00568824119093,-0.0698964055019
1000000000.0,-0.00711560499372,-0.0775429399025,0.99173972755,-0.0961512673913,0.99173972755,-0.0961512673913,-0.00711560499372,-0.0775429399025
1100000000.0,-0.00868818572245,-0.0851520346916,0.990128451853,-0.105622628916,0.990128451853,-0.105622628916,-0.00868818572245,-0.0851520346916
1200000000.0,-0.0104046978312,-0.0927201247429,0.988369842872,-0.115053370076,0.988369842872,-0.115053370076,-0.0104046978312,-0.0927201247429
1300000000.0,-0.0122637444952,-0.100243696803,0.98646528053,-0.124440006549,0.98646528053,-0.124440006549,-0.0122637444952,-0.100243696803
1400000000.0,-0.0142638197219,-0.107719294171,0.984416256344,-0.133779110228,0.984416256344,-0.133779110228,-0.0142638197219,-0.107719294171
1500000000.0,-0.0164033108389,-0.115143521176,0.982224370271,-0.143067313742,0.982224370271,-0.143067313742,-0.0164033108389,-0.115143521176
1600000000.0,-0.0186805012884,-0.122513047463,0.979891327445,-0.152301314769,0.979891327445,-0.152301314769,-0.0186805012884,-0.122513047463
1700000000.0,-0.0210935736812,-0.129824612072,0.977418934785,-0.161477880151,0.977418934785,-0.161477880151,-0.0210935736812,-0.129824612072
1800000000.0,-0.0236406130761,-0.13707502731,0.97480909747,-0.170593849785,0.97480909747,-0.170593849785,-0.0236406130761,-0.13707502731
1900000000.0,-0.0263196104566,-0.144261182418,0.972063815278,-0.179646140312,0.972063815278,-0.179646140312,-0.0263196104566,-0.144261182418
2000000000.0,-0.0291284663847,-0.151380047016,0.969185178787,-0.18863174858,0.969185178787,-0.18863174858,-0.0291284663847,-0.151380047016
2100000000.0,-0.0320649948093,-0.158428674333,0.966175365461,-0.19754775489,0.966175365461,-0.19754775489,-0.0320649948093,-0.158428674333
2200000000.0,-0.0351269270128,-0.165404204208,0.963036635613,-0.206391326009,0.963036635613,-0.206391326009,-0.0351269270128,-0.165404204208
2300000000.0,-0.038311915679,-0.172303865867,0.959771328275,-0.215159717963,0.959771328275,-0.215159717963,-0.038311915679,-0.172303865867
2400000000.0,-0.0416175390644,-0.17912498047,0.956381856966,-0.22385027859,0.956381856966,-0.22385027859,-0.0416175390644,-0.17912498047
2500000000.0,-0.0450413052594,-0.185864963422,0.952870705387,-0.232460449865,0.952870705387,-0.232460449865,-0.0450413052594,-0.185864963422
2600000000.0,-0.0485806565227,-0.192521326452,0.949240423054,-0.240987769986,0.949240423054,-0.240987769986,-0.0485806565227,-0.192521326452
2700000000.0,-0.0522329736745,-0.199091679461,0.945493620871,-0.249429875232,0.945493620871,-0.249429875232,-0.0522329736745,-0.199091679461
2800000000.0,-0.0559955805345,-0.205573732129,0.941632966667,-0.257784501574,0.941632966667,-0.257784501574,-0.0559955805345,-0.205573732129
2900000000.0,-0.05986574839,-0.211965295297,0.93766118071,-0.266049486069,0.93766118071,-0.266049486069,-0.05986574839,-0.211965295297
3000000000.0,-0.0638407004805,-0.218264282111,0.933581031198,-0.274222768007,0.933581031198,-0.274222768007,-0.0638407004805,-0.218264282111
3100000000.0,-0.0679176164861,-0.224468708942,0.929395329762,-0.282302389837,0.929395329762,-0.282302389837,-0.0679176164861,-0.224468708942
3200000000.0,-0.0720936370063,-0.230576696082,0.92510692697,-0.290286497868,0.92510692697,-0.290286497868,-0.0720936370063,-0.230576696082
3300000000.0,-0.0763658680168,-0.236586468213,0.920718707862,-0.298173342747,0.920718707862,-0.298173342747,-0.0763658680168,-0.236586468213
3400000000.0,-0.0807313852928,-0.242496354666,0.916233587513,-0.305961279719,0.916233587513,-0.305961279719,-0.0807313852928,-0.242496354666
3500000000.0,-0.0851872387868,-0.248304789464,0.911654506647,-0.313648768677,0.911654506647,-0.313648768677,-0.0851872387868,-0.248304789464
3600000000.0,-0.0897304569516,-0.254010311167,0.906984427312,-0.321234374007,0.906984427312,-0.321234374007,-0.0897304569516,-0.254010311167
3700000000.0,-0.0943580509958,-0.259611562509,0.902226328608,-0.328716764235,0.902226328608,-0.328716764235,-0.0943580509958,-0.259611562509
3800000000.0,-0.0990670190648,-0.265107289851,0.897383202509,-0.336094711479,0.897383202509,-0.336094711479,-0.0990670190648,-0.265107289851
3900000000.0,-0.103854350336,-0.270496342445,0.892458049758,-0.343367090722,0.892458049758,-0.343367090722,-0.103854350336,-0.270496342445
4000000000.0,-0.108717029022,-0.275777671528,0.887453875857,-0.350532878901,0.887453875857,-0.350532878901,-0.108717029022,-0.275777671528
4100000000.0,-0.113652038272,-0.280950329236,0.882373687166,-0.357591153832,0.882373687166,-0.357591153832,-0.113652038272,-0.280950329236
4200000000.0,-0.118656363965,-0.286013467369,0.8772204871,-0.364541092976,0.8772204871,-0.364541092976,-0.118656363965,-0.286013467369
4300000000.0,-0.123726998393,-0.290966336001,0.87199727245,-0.37138197205,0.87199727245,-0.37138197205,-0.123726998393,-0.290966336001
4400000000.0,-0.128860943813,-0.295808281943,0.866707029817,-0.378113163497,0.866707029817,-0.378113163497,-0.128860943813,-0.295808281943
4500000000.0,-0.134055215888,-0.300538747082,0.861352732175,-0.384734134818,0.861352732175,-0.384734134818,-0.134055215888,-0.300538747082
4600000000.0,-0.139306846989,-0.305157266581,0.855937335565,-0.391244446792,0.855937335565,-0.391244446792,-0.139306846989,-0.305157266581
4700000000.0,-0.144612889364,-0.30966346698,0.85046377592,-0.397643751559,0.85046377592,-0.397643751559,-0.144612889364,-0.30966346698
4800000000.0,-0.149970418173,-0.314057064177,0.84493496603,-0.403931790622,0.84493496603,-0.403931790622,-0.149970418173,-0.314057064177
4900000000.0,-0.155376534384,-0.318337861321,0.839353792643,-0.410108392728,0.839353792643,-0.410108392728,-0.155376534384,-0.318337861321
5000000000.0,-0.16082836752,-0.32250574661,0.833723113711,-0.416173471676,0.833723113711,-0.416173471676,-0.16082836752,-0.32250574661
5100000000.0,-0.166323078277,-0.326560691013,0.82804575578,-0.422127024041,0.82804575578,-0.422127024041,-0.166323078277,-0.326560691013
5200000000.0,-0.17185786098,-0.330502745923,0.822324511518,-0.427969126826,0.822324511518,-0.427969126826,-0.17185786098,-0.330502745923
5300000000.0,-0.177429945912,-0.334332040745,0.816562137392,-0.433699935054,0.816562137392,-0.433699935054,-0.177429945912,-0.334332040745
5400000000.0,-0.183036601487,-0.338048780433,0.810761351495,-0.439319679304,0.810761351495,-0.439319679304,-0.183036601487,-0.338048780433
5500000000.0,-0.188675136281,-0.341653242976,0.804924831502,-0.444828663207,0.804924831502,-0.444828663207,-0.188675136281,-0.341653242976
5600000000.0,-0.194342900929,-0.345145776859,0.799055212783,-0.450227260899,0.799055212783,-0.450227260899,-0.194342900929,-0.345145776859
5700000000.0,-0.200037289865,-0.348526798483,0.793155086653,-0.455515914446,0.793155086653,-0.455515914446,-0.200037289865,-0.348526798483
5800000000.0,-0.205755742936,-0.351796789564,0.787226998755,-0.460695131251,0.787226998755,-0.460695131251,-0.205755742936,-0.351796789564
5900000000.0,-0.211495746876,-0.354956294526,0.781273447594,-0.46576548144,0.781273447594,-0.46576548144,-0.211495746876,-0.354956294526
6000000000.0,-0.217254836634,-0.358005917878,0.775296883192,-0.470727595243,0.775296883192,-0.470727595243,-0.217254836634,-0.358005917878
6100000000.0,-0.223030596587,-0.36094632159,0.769299705883,-0.475582160376,0.769299705883,-0.475582160376,-0.223030596587,-0.36094632159
6200000000.0,-0.22882066161,-0.363778222477,0.763284265239,-0.480329919422,0.763284265239,-0.480329919422,-0.22882066161,-0.363778222477
6300000000.0,-0.234622718029,-0.366502389593,0.757252859114,-0.484971667228,0.757252859114,-0.484971667228,-0.234622718029,-0.366502389593
6400000000.0,-0.240434504443,-0.369119641639,0.751207732818,-0.489508248313,0.751207732818,-0.489508248313,-0.240434504443,-0.369119641639
6500000000.0,-0.246253812437,-0.371630844394,0.745151078405,-0.493940554304,0.745151078405,-0.493940554304,-0.246253812437,-0.371630844394
6600000000.0,-0.252078487173,-0.374036908171,0.739085034076,-0.498269521393,0.739085034076,-0.498269521393,-0.252078487173,-0.374036908171
6700000000.0,-0.257906427871,-0.376338785308,0.7330116837,-0.502496127822,0.7330116837,-0.502496127822,-0.257906427871,-0.376338785308
6800000000.0,-0.26373558819,-0.378537467688,0.726933056427,-0.506621391414,0.726933056427,-0.506621391414,-0.26373558819,-0.378537467688
6900000000.0,-0.269563976499,-0.3806339843,0.720851126419,-0.510646367132,0.720851126419,-0.510646367132,-0.269563976499,-0.3806339843
7000000000.0,-0.27538965605,-0.382629398845,0.714767812667,-0.514572144684,0.714767812667,-0.514572144684,-0.27538965605,-0.382629398845
7100000000.0,-0.281210745065,-0.384524807384,0.708684978913,-0.518399846174,0.708684978913,-0.518399846174,-0.281210745065,-0.384524807384
7200000000.0,-0.287025416724,-0.386321336038,0.702604433648,-0.522130623803,0.702604433648,-0.522130623803,-0.287025416724,-0.386321336038
7300000000.0,-0.292831899076,-0.388020138736,0.696527930206,-0.525765657619,0.696527930206,-0.525765657619,-0.292831899076,-0.388020138736
7400000000.0,-0.298628474864,-0.389622395014,0.690457166935,-0.529306153318,0.690457166935,-0.529306153318,-0.298628474864,-0.389622395014
7500000000.0,-0.304413481275,-0.391129307881,0.684393787441,-0.532753340107,0.684393787441,-0.532753340107,-0.304413481275,-0.391129307881
7600000000.0,-0.310185309624,-0.392542101727,0.678339380909,-0.536108468616,0.678339380909,-0.536108468616,-0.310185309624,-0.392542101727
7700000000.0,-0.315942404956,-0.393862020301,0.672295482489,-0.539372808878,0.672295482489,-0.539372808878,-0.315942404956,-0.393862020301
7800000000.0,-0.321683265605,-0.395090324741,0.666263573743,-0.542547648361,0.666263573743,-0.542547648361,-0.321683265605,-0.395090324741
7900000000.0,-0.327406442676,-0.396228291674,0.660245083156,-0.545634290063,0.660245083156,-0.545634290063,-0.327406442676,-0.396228291674
8000000000.0,-0.33311053948,-0.397277211369,0.654241386696,-0.548634050673,0.654241386696,-0.548634050673,-0.33311053948,-0.397277211369
8100000000.0,-0.338794210918,-0.398238385957,0.648253808435,-0.551548258788,0.648253808435,-0.551548258788,-0.338794210918,-0.398238385957
8200000000.0,-0.344456162818,-0.399113127711,0.642283621201,-0.554378253196,0.642283621201,-0.554378253196,-0.344456162818,-0.399113127711
8300000000.0,-0.350095151222,-0.399902757395,0.636332047294,-0.557125381224,0.636332047294,-0.557125381224,-0.350095151222,-0.399902757395
8400000000.0,-0.355709981647,-0.400608602666,0.630400259219,-0.55979099714,0.630400259219,-0.55979099714,-0.355709981647,-0.400608602666
8500000000.0,-0.361299508292,-0.401231996545,0.624489380477,-0.562376460633,0.624489380477,-0.562376460633,-0.361299508292,-0.401231996545
8600000000.0,-0.36686263323,-0.401774275952,0.618600486371,-0.564883135339,0.618600486371,-0.564883135339,-0.36686263323,-0.401774275952
8700000000.0,-0.372398305557,-0.4022367803,0.612734604853,-0.567312387437,0.612734604853,-0.567312387437,-0.372398305557,-0.4022367803
8800000000.0,-0.377905520523,-0.402620850147,0.606892717391,-0.569665584309,0.606892717391,-0.569665584309,-0.377905520523,-0.402620850147
8900000000.0,-0.383383318637,-0.402927825914,0.601075759861,-0.571944093255,0.601075759861,-0.571944093255,-0.383383318637,-0.402927825914
9000000000.0,-0.388830784751,-0.403159046665,0.595284623456,-0.574149280268,0.595284623456,-0.574149280268,-0.388830784751,-0.403159046665
9100000000.0,-0.394247047127,-0.403315848935,0.589520155623,-0.576282508872,0.589520155623,-0.576282508872,-0.394247047127,-0.403315848935
9200000000.0,-0.399631276494,-0.403399565626,0.583783160998,-0.578345139016,0.583783160998,-0.578345139016,-0.399631276494,-0.403399565626
9300000000.0,-0.404982685082,-0.403411524958,0.578074402367,-0.580338526021,0.578074402367,-0.580338526021,-0.404982685082,-0.403411524958
9400000000.0,-0.41030052566,-0.40335304947,0.572394601632,-0.582264019588,0.572394601632,-0.582264019588,-0.41030052566,-0.40335304947
9500000000.0,-0.415584090557,-0.403225455084,0.56674444078,-0.584122962857,0.56674444078,-0.584122962857,-0.415584090557,-0.403225455084
9600000000.0,-0.42083271068,-0.403030050212,0.561124562864,-0.585916691523,0.561124562864,-0.585916691523,-0.42083271068,-0.403030050212
9700000000.0,-0.426045754527,-0.402768134924,0.555535572984,-0.587646532994,0.555535572984,-0.587646532994,-0.426045754527,-0.402768134924
9800000000.0,-0.431222627209,-0.402441000163,0.54997803927,-0.589313805615,0.54997803927,-0.589313805615,-0.431222627209,-0.402441000163
9900000000.0,-0.436362769456,-0.402049927005,0.544452493861,-0.590919817924,0.544452493861,-0.590919817924,-0.436362769456,-0.402049927005
10000000000.0,-0.441465656637,-0.401596185972,0.538959433889,-0.592465867971,0.538959433889,-0.592465867971,-0.441465656637,-0.401596185972
