freq (GHz),S11_real,S11_imag,S21_real,S21_imag,S12_real,S12_imag,S22_real,S22_imag
100000000.0,0.000105160429969,5.3785090238e-05,0.999893785287,-0.000110560103595,0.999893785287,-0.000110560103595,0.000105160429969,5.3785090238e-05
200000000.0,0.000105857340623,0.000107570128069,0.999893030865,-0.000221121118271,0.999893030865,-0.000221121118271,0.000105857340623,0.000107570128069
300000000.0,0.000106379486261,0.000161355301623,0.999892447985,-0.000331683728426,0.999892447985,-0.000331683728426,0.000106379486261,0.000161355301623
400000000.0,0.00010681863695,0.000215140725427,0.999891944873,-0.000442248423939,0.999891944873,-0.000442248423939,0.00010681863695,0.000215140725427
500000000.0,0.000107210132249,0.000268926492223,0.999891486189,-0.0005528156173,0.999891486189,-0.0005528156173,0.000107210132248,0.000268926492223
600000000.0,0.00010757199209,0.000322712687148,0.999891053912,-0.000663385671561,0.999891053912,-0.000663385671561,0.00010757199209,0.000322712687148
700000000.0,0.000107914860069,0.00037649938954,0.999890637399,-0.000773958917518,0.999890637399,-0.000773958917518,0.000107914860069,0.00037649938954
800000000.0,0.000108245630866,0.000430286678047,0.999890229752,-0.000884535659132,0.999890229752,-0.000884535659132,0.000108245630866,0.000430286678047
900000000.0,0.000108569065555,0.000484074628001,0.999889826212,-0.00099511618273,0.999889826212,-0.00099511618273,0.000108569065555,0.000484074628001
1000000000.0,0.000108888610048,0.000537863315854,0.99988942333,-0.00110570075699,0.99988942333,-0.00110570075699,0.000108888610048,0.000537863315854
1100000000.0,0.000109206850061,0.000591652817592,0.99988901852,-0.00121628963767,0.99988901852,-0.00121628963767,0.000109206850061,0.000591652817592
1200000000.0,0.0001095257822,0.000645443209775,0.999888609785,-0.00132688306892,0.999888609785,-0.00132688306892,0.0001095257822,0.000645443209775
1300000000.0,0.000109846984566,0.000699234568838,0.999888195546,-0.00143748128575,0.999888195546,-0.00143748128575,0.000109846984566,0.000699234568838
1400000000.0,0.000110171728543,0.000753026973166,0.999887774529,-0.00154808451336,0.999887774529,-0.00154808451336,0.000110171728543,0.000753026973166
1500000000.0,0.000110501055425,0.00080682050114,0.999887345694,-0.00165869297023,0.999887345694,-0.00165869297023,0.000110501055426,0.00080682050114
1600000000.0,0.000110835829897,0.000860615232378,0.999886908174,-0.00176930686778,0.999886908174,-0.00176930686778,0.000110835829897,0.000860615232378
1700000000.0,0.000111176778682,0.000914411247881,0.999886461242,-0.00187992641099,0.999886461242,-0.00187992641099,0.000111176778682,0.000914411247881
1800000000.0,0.000111524518946,0.000968208629484,0.999886004279,-0.00199055179956,0.999886004279,-0.00199055179956,0.000111524518946,0.000968208629484
1900000000.0,0.000111879579778,0.00102200746011,0.999885536755,-0.00210118322824,0.999885536755,-0.00210118322824,0.000111879579778,0.00102200746011
2000000000.0,0.000112242418425,0.00107580782395,0.999885058212,-0.00221182088707,0.999885058212,-0.00221182088707,0.000112242418425,0.00107580782395
2100000000.0,0.00011261343298,0.00112960980645,0.999884568251,-0.00232246496182,0.999884568251,-0.00232246496182,0.00011261343298,0.00112960980645
2200000000.0,0.000112992972342,0.00118341349409,0.999884066522,-0.00243311563449,0.999884066522,-0.00243311563449,0.000112992972342,0.00118341349409
2300000000.0,0.000113381344119,0.0012372189747,0.999883552716,-0.00254377308339,0.999883552716,-0.00254377308339,0.000113381344119,0.0012372189747
2400000000.0,0.000113778820994,0.00129102633731,0.99988302656,-0.00265443748349,0.99988302656,-0.00265443748349,0.000113778820994,0.00129102633731
2500000000.0,0.000114185645904,0.00134483567188,0.999882487808,-0.00276510900692,0.999882487808,-0.00276510900692,0.000114185645904,0.00134483567188
2600000000.0,0.000114602036273,0.00139864707006,0.999881936244,-0.00287578782247,0.999881936244,-0.00287578782247,0.000114602036273,0.00139864707006
2700000000.0,0.000115028187506,0.00145246062416,0.99988137167,-0.00298647409675,0.99988137167,-0.00298647409675,0.000115028187506,0.00145246062416
2800000000.0,0.000115464275918,0.00150627642812,0.99988079391,-0.00309716799341,0.99988079391,-0.00309716799341,0.000115464275918,0.00150627642812
2900000000.0,0.000115910461162,0.00156009457666,0.999880202801,-0.00320786967413,0.999880202801,-0.00320786967413,0.000115910461162,0.00156009457666
3000000000.0,0.000116366888303,0.00161391516611,0.999879598198,-0.00331857929797,0.999879598198,-0.00331857929797,0.000116366888303,0.00161391516611
3100000000.0,0.00011683368957,0.00166773829348,0.999878979968,-0.00342929702232,0.999878979968,-0.00342929702232,0.00011683368957,0.00166773829348
3200000000.0,0.000117310985839,0.0017215640573,0.999878347988,-0.00354002300228,0.999878347988,-0.00354002300228,0.000117310985839,0.0017215640573
3300000000.0,0.000117798887934,0.00177539255693,0.999877702147,-0.00365075739139,0.999877702147,-0.00365075739139,0.000117798887934,0.00177539255693
3400000000.0,0.000118297497713,0.0018292238931,0.999877042342,-0.00376150034119,0.999877042342,-0.00376150034119,0.000118297497713,0.0018292238931
3500000000.0,0.000118806909042,0.00188305816747,0.999876368478,-0.00387225200177,0.999876368478,-0.00387225200177,0.000118806909042,0.00188305816747
3600000000.0,0.000119327208627,0.00193689548291,0.999875680466,-0.0039830125215,0.999875680466,-0.0039830125215,0.000119327208627,0.00193689548291
3700000000.0,0.000119858476725,0.00199073594334,0.999874978225,-0.00409378204736,0.999874978225,-0.00409378204736,0.000119858476725,0.00199073594334
3800000000.0,0.000120400787814,0.00204457965361,0.99987426168,-0.00420456072503,0.99987426168,-0.00420456072503,0.000120400787814,0.00204457965361
3900000000.0,0.000120954211122,0.00209842671986,0.999873530761,-0.00431534869864,0.999873530761,-0.00431534869864,0.000120954211122,0.00209842671986
4000000000.0,0.000121518811148,0.00215227724912,0.999872785401,-0.00442614611124,0.999872785401,-0.00442614611124,0.000121518811148,0.00215227724912
4100000000.0,0.000122094648086,0.00220613134952,0.99987202554,-0.00453695310457,0.99987202554,-0.00453695310457,0.000122094648086,0.00220613134952
4200000000.0,0.000122681778228,0.00225998913012,0.999871251119,-0.00464776981936,0.999871251119,-0.00464776981936,0.000122681778228,0.00225998913012
4300000000.0,0.000123280254298,0.00231385070108,0.999870462086,-0.00475859639515,0.999870462086,-0.00475859639515,0.000123280254298,0.00231385070108
4400000000.0,0.000123890125775,0.00236771617348,0.999869658389,-0.00486943297055,0.999869658389,-0.00486943297055,0.000123890125775,0.00236771617348
4500000000.0,0.000124511439165,0.00242158565948,0.99986883998,-0.00498027968303,0.99986883998,-0.00498027968303,0.000124511439165,0.00242158565948
4600000000.0,0.000125144238255,0.00247545927206,0.999868006815,-0.00509113666936,0.999868006815,-0.00509113666936,0.000125144238256,0.00247545927206
4700000000.0,0.000125788564336,0.0025293371253,0.999867158852,-0.00520200406523,0.999867158852,-0.00520200406523,0.000125788564336,0.0025293371253
4800000000.0,0.000126444456406,0.00258321933415,0.99986629605,-0.00531288200557,0.99986629605,-0.00531288200557,0.000126444456406,0.00258321933415
4900000000.0,0.00012711195135,0.00263710601449,0.999865418371,-0.00542377062451,0.999865418371,-0.00542377062451,0.00012711195135,0.00263710601449
5000000000.0,0.000127791084118,0.00269099728319,0.999864525779,-0.00553467005536,0.999864525779,-0.00553467005536,0.000127791084118,0.00269099728319
5100000000.0,0.000128481887865,0.00274489325797,0.99986361824,-0.00564558043074,0.99986361824,-0.00564558043074,0.000128481887865,0.00274489325797
5200000000.0,0.000129184394092,0.00279879405742,0.999862695721,-0.0057565018826,0.999862695721,-0.0057565018826,0.000129184394092,0.00279879405742
5300000000.0,0.000129898632773,0.00285269980117,0.999861758191,-0.00586743454209,0.999861758191,-0.00586743454209,0.000129898632773,0.00285269980117
5400000000.0,0.000130624632468,0.00290661060962,0.99986080562,-0.00597837853984,0.99986080562,-0.00597837853984,0.000130624632468,0.00290661060962
5500000000.0,0.000131362420427,0.00296052660398,0.99985983798,-0.0060893340059,0.99985983798,-0.0060893340059,0.000131362420427,0.00296052660398
5600000000.0,0.000132112022688,0.00301444790639,0.999858855244,-0.0062003010697,0.999858855244,-0.0062003010697,0.000132112022688,0.00301444790639
5700000000.0,0.000132873464163,0.00306837463993,0.999857857386,-0.00631127986,0.999857857386,-0.00631127986,0.000132873464163,0.00306837463993
5800000000.0,0.000133646768719,0.00312230692838,0.99985684438,-0.0064222705052,0.99985684438,-0.0064222705052,0.000133646768718,0.00312230692838
5900000000.0,0.00013443195925,0.0031762448964,0.999855816203,-0.00653327313311,0.999855816203,-0.00653327313311,0.00013443195925,0.0031762448964
6000000000.0,0.000135229057755,0.00323018866942,0.999854772832,-0.00664428787114,0.999854772832,-0.00664428787114,0.000135229057755,0.00323018866942
6100000000.0,0.000136038085388,0.00328413837382,0.999853714244,-0.00675531484608,0.999853714244,-0.00675531484608,0.000136038085388,0.00328413837382
6200000000.0,0.000136859062527,0.00333809413672,0.999852640419,-0.00686635418437,0.999852640419,-0.00686635418437,0.000136859062527,0.00333809413672
6300000000.0,0.000137692008819,0.00339205608592,0.999851551334,-0.0069774060121,0.999851551334,-0.0069774060121,0.000137692008819,0.00339205608592
6400000000.0,0.000138536943243,0.00344602435012,0.99985044697,-0.00708847045488,0.99985044697,-0.00708847045488,0.000138536943243,0.00344602435012
6500000000.0,0.00013939388414,0.00349999905883,0.999849327308,-0.00719954763789,0.999849327308,-0.00719954763789,0.00013939388414,0.00349999905883
6600000000.0,0.000140262849269,0.00355398034223,0.999848192329,-0.00731063768604,0.999848192329,-0.00731063768604,0.000140262849269,0.00355398034223
6700000000.0,0.000141143855841,0.00360796833134,0.999847042014,-0.00742174072382,0.999847042014,-0.00742174072382,0.000141143855841,0.00360796833134
6800000000.0,0.00014203692056,0.00366196315783,0.999845876347,-0.00753285687546,0.999845876347,-0.00753285687546,0.00014203692056,0.00366196315783
6900000000.0,0.000142942059651,0.00371596495427,0.999844695308,-0.00764398626477,0.999844695308,-0.00764398626477,0.000142942059651,0.00371596495427
7000000000.0,0.000143859288901,0.00376997385383,0.999843498883,-0.00775512901534,0.999843498883,-0.00775512901534,0.000143859288902,0.00376997385383
7100000000.0,0.000144788623685,0.00382398999041,0.999842287054,-0.00786628525048,0.999842287054,-0.00786628525048,0.000144788623686,0.00382398999041
7200000000.0,0.000145730078994,0.00387801349875,0.999841059805,-0.00797745509313,0.999841059805,-0.00797745509313,0.000145730078993,0.00387801349875
7300000000.0,0.000146683669457,0.0039320445142,0.99983981712,-0.00808863866604,0.99983981712,-0.00808863866604,0.000146683669457,0.0039320445142
7400000000.0,0.000147649409379,0.00398608317283,0.999838558985,-0.00819983609171,0.999838558985,-0.00819983609171,0.000147649409379,0.00398608317283
7500000000.0,0.000148627312748,0.00404012961147,0.999837285385,-0.00831104749234,0.999837285385,-0.00831104749234,0.000148627312748,0.00404012961147
7600000000.0,0.000149617393269,0.00409418396754,0.999835996303,-0.00842227299,0.999835996303,-0.00842227299,0.000149617393269,0.00409418396754
7700000000.0,0.000150619664379,0.00414824637926,0.999834691727,-0.00853351270643,0.999834691727,-0.00853351270643,0.000150619664379,0.00414824637926
7800000000.0,0.000151634139265,0.00420231698544,0.999833371642,-0.00864476676325,0.999833371642,-0.00864476676325,0.000151634139266,0.00420231698544
7900000000.0,0.000152660830886,0.00425639592559,0.999832036034,-0.00875603528187,0.999832036034,-0.00875603528187,0.000152660830886,0.00425639592559
8000000000.0,0.000153699751987,0.00431048333991,0.99983068489,-0.00886731838345,0.99983068489,-0.00886731838345,0.000153699751987,0.00431048333991
8100000000.0,0.000154750915114,0.00436457936925,0.999829318195,-0.00897861618903,0.999829318195,-0.00897861618903,0.000154750915114,0.00436457936925
8200000000.0,0.000155814332635,0.00441868415505,0.999827935937,-0.0090899288195,0.999827935937,-0.0090899288195,0.000155814332635,0.00441868415505
8300000000.0,0.000156890016745,0.00447279783949,0.999826538102,-0.00920125639554,0.999826538102,-0.00920125639554,0.000156890016745,0.00447279783949
8400000000.0,0.000157977979488,0.00452692056535,0.999825124678,-0.00931259903768,0.999825124678,-0.00931259903768,0.000157977979488,0.00452692056535
8500000000.0,0.000159078232764,0.00458105247606,0.999823695651,-0.00942395686633,0.999823695651,-0.00942395686633,0.000159078232764,0.00458105247606
8600000000.0,0.000160190788344,0.00463519371559,0.999822251009,-0.00953533000179,0.999822251009,-0.00953533000179,0.000160190788343,0.00463519371559
8700000000.0,0.000161315657877,0.00468934442868,0.99982079074,-0.00964671856416,0.99982079074,-0.00964671856416,0.000161315657878,0.00468934442868
8800000000.0,0.00016245285291,0.00474350476055,0.99981931483,-0.00975812267349,0.99981931483,-0.00975812267349,0.00016245285291,0.00474350476055
8900000000.0,0.000163602384885,0.00479767485717,0.999817823268,-0.00986954244963,0.999817823268,-0.00986954244963,0.000163602384885,0.00479767485717
9000000000.0,0.00016476426516,0.00485185486498,0.999816316042,-0.00998097801241,0.999816316042,-0.00998097801241,0.00016476426516,0.00485185486498
9100000000.0,0.000165938505011,0.0049060449311,0.999814793139,-0.0100924294815,0.999814793139,-0.0100924294815,0.000165938505011,0.0049060449311
9200000000.0,0.000167125115643,0.00496024520322,0.999813254547,-0.0102038969765,0.999813254547,-0.0102038969765,0.000167125115643,0.00496024520322
9300000000.0,0.000168324108202,0.00501445582967,0.999811700254,-0.0103153806169,0.999811700254,-0.0103153806169,0.000168324108202,0.00501445582967
9400000000.0,0.000169535493772,0.00506867695923,0.999810130249,-0.0104268805222,0.999810130249,-0.0104268805222,0.000169535493773,0.00506867695923
9500000000.0,0.000170759283397,0.00512290874141,0.999808544519,-0.0105383968117,0.999808544519,-0.0105383968117,0.000170759283397,0.00512290874141
9600000000.0,0.000171995488075,0.00517715132624,0.999806943053,-0.0106499296045,0.999806943053,-0.0106499296045,0.000171995488075,0.00517715132624
9700000000.0,0.000173244118771,0.00523140486427,0.999805325838,-0.01076147902,0.999805325838,-0.01076147902,0.000173244118771,0.00523140486427
9800000000.0,0.000174505186423,0.00528566950672,0.999803692864,-0.0108730451773,0.999803692864,-0.0108730451773,0.000174505186423,0.00528566950672
9900000000.0,0.000175778701949,0.00533994540527,0.999802044119,-0.0109846281954,0.999802044119,-0.0109846281954,0.000175778701949,0.00533994540527
10000000000.0,0.000177064676249,0.0053942327122,0.99980037959,-0.0110962281933,0.99980037959,-0.0110962281933,0.000177064676248,0.0053942327122
