freq (GHz),S11_real,S11_imag,S21_real,S21_imag,S12_real,S12_imag,S22_real,S22_imag
100000000.0,0.0080624040434,0.0027277258216,0.991933624139,-0.00440631576075,0.991933624139,-0.00440631576075,0.0080624040434,0.0027277258216
200000000.0,0.00815117425764,0.00545444629628,0.99183905656,-0.00881165157577,0.99183905656,-0.00881165157577,0.00815117425764,0.00545444629628
300000000.0,0.00825003835873,0.00818021779782,0.991731569163,-0.0132160809661,0.991731569163,-0.0132160809661,0.00825003835873,0.00818021779782
400000000.0,0.0083659315884,0.0109048954562,0.991604226237,-0.0176194729102,0.991604226237,-0.0176194729102,0.0083659315884,0.0109048954562
500000000.0,0.00850151665125,0.0136282876493,0.991454364518,-0.0220216479548,0.991454364518,-0.0220216479548,0.00850151665126,0.0136282876493
600000000.0,0.00865814260835,0.016350182191,0.9912806343,-0.0264224049744,0.9912806343,-0.0264224049744,0.00865814260835,0.016350182191
700000000.0,0.00883659708664,0.0190703557807,0.99108224723,-0.0308215309126,0.99108224723,-0.0308215309126,0.00883659708664,0.0190703557807
800000000.0,0.00903738080969,0.0217885784157,0.990858701775,-0.0352188053708,0.990858701775,-0.0352188053708,0.00903738080969,0.0217885784157
900000000.0,0.00926082982918,0.024504615786,0.990609660998,-0.0396140031182,0.990609660998,-0.0396140031182,0.00926082982918,0.024504615786
1000000000.0,0.00950717747963,0.0272182307116,0.990334890605,-0.0440068956124,0.990334890605,-0.0440068956124,0.00950717747963,0.0272182307116
1100000000.0,0.00977658881798,0.029929184074,0.990034224504,-0.0483972519909,0.990034224504,-0.0483972519909,0.00977658881798,0.029929184074
1200000000.0,0.0100691811462,0.0326372354553,0.989707544289,-0.0527848397571,0.989707544289,-0.0527848397571,0.0100691811462,0.0326372354553
1300000000.0,0.0103850369253,0.0353421435994,0.989354766323,-0.0571694252785,0.989354766323,-0.0571694252785,0.0103850369253,0.0353421435994
1400000000.0,0.0107242122658,0.0380436667576,0.988975833252,-0.0615507741621,0.988975833252,-0.0615507741621,0.0107242122658,0.0380436667576
1500000000.0,0.0110867427172,0.0407415629578,0.988570708217,-0.0659286515481,0.988570708217,-0.0659286515481,0.0110867427172,0.0407415629578
1600000000.0,0.0114726473373,0.0434355902202,0.988139370783,-0.0703028223464,0.988139370783,-0.0703028223464,0.0114726473373,0.0434355902202
1700000000.0,0.0118819316287,0.0461255067347,0.987681814008,-0.074673051431,0.987681814008,-0.074673051431,0.0118819316287,0.0461255067347
1800000000.0,0.0123145897064,0.0488110710108,0.987198042273,-0.0790391038056,0.987198042273,-0.0790391038056,0.0123145897064,0.0488110710108
1900000000.0,0.0127706059304,0.0514920420065,0.986688069652,-0.083400744745,0.986688069652,-0.083400744745,0.0127706059304,0.0514920420065
2000000000.0,0.0132499561576,0.0541681792413,0.986151918661,-0.0877577399197,0.986151918661,-0.0877577399197,0.0132499561576,0.0541681792413
2100000000.0,0.0137526087166,0.0568392428969,0.985589619284,-0.0921098555069,0.985589619284,-0.0921098555069,0.0137526087166,0.0568392428969
2200000000.0,0.0142785251794,0.0595049939085,0.985001208201,-0.0964568582902,0.985001208201,-0.0964568582902,0.0142785251794,0.0595049939085
2300000000.0,0.0148276609795,0.0621651940477,0.984386728174,-0.100798515751,0.984386728174,-0.100798515751,0.0148276609795,0.0621651940477
2400000000.0,0.0153999659135,0.0648196059995,0.983746227541,-0.105134596154,0.983746227541,-0.105134596154,0.0153999659135,0.0648196059995
2500000000.0,0.0159953845537,0.0674679934344,0.983079759809,-0.109464868621,0.983079759809,-0.109464868621,0.0159953845537,0.0674679934344
2600000000.0,0.0166138565906,0.0701101210749,0.982387383309,-0.11378910321,0.982387383309,-0.11378910321,0.0166138565906,0.0701101210749
2700000000.0,0.0172553171208,0.0727457547599,0.98166916091,-0.118107070982,0.98166916091,-0.118107070982,0.0172553171208,0.0727457547599
2800000000.0,0.0179196968914,0.0753746615046,0.980925159777,-0.122418544062,0.980925159777,-0.122418544062,0.0179196968914,0.0753746615046
2900000000.0,0.0186069225094,0.0779966095586,0.980155451157,-0.126723295709,0.980155451157,-0.126723295709,0.0186069225094,0.0779966095586
3000000000.0,0.0193169166235,0.080611368461,0.979360110205,-0.131021100371,0.979360110205,-0.131021100371,0.0193169166235,0.080611368461
3100000000.0,0.0200495980827,0.0832187090934,0.978539215818,-0.135311733741,0.978539215818,-0.135311733741,0.0200495980827,0.0832187090934
3200000000.0,0.0208048820765,0.0858184037315,0.977692850501,-0.139594972814,0.977692850501,-0.139594972814,0.0208048820765,0.0858184037315
3300000000.0,0.0215826802601,0.0884102260942,0.976821100242,-0.143870595942,0.976821100242,-0.143870595942,0.0215826802601,0.0884102260942
3400000000.0,0.0223829008663,0.0909939513918,0.975924054396,-0.148138382879,0.975924054396,-0.148138382879,0.0223829008663,0.0909939513918
3500000000.0,0.0232054488078,0.0935693563719,0.975001805589,-0.152398114835,0.975001805589,-0.152398114835,0.0232054488078,0.0935693563719
3600000000.0,0.02405022577,0.0961362193652,0.974054449621,-0.156649574523,0.974054449621,-0.156649574523,0.02405022577,0.0961362193652
3700000000.0,0.0249171302972,0.0986943203283,0.973082085384,-0.160892546205,0.973082085384,-0.160892546205,0.0249171302972,0.0986943203283
3800000000.0,0.0258060578722,0.101243440887,0.972084814778,-0.165126815735,0.972084814778,-0.165126815735,0.0258060578722,0.101243440887
3900000000.0,0.0267169009909,0.103783364376,0.971062742641,-0.169352170606,0.971062742641,-0.169352170606,0.0267169009909,0.103783364376
4000000000.0,0.0276495492327,0.106313875883,0.970015976679,-0.173568399989,0.970015976679,-0.173568399989,0.0276495492327,0.106313875883
4100000000.0,0.0286038893272,0.108834762282,0.968944627396,-0.177775294778,0.968944627396,-0.177775294778,0.0286038893272,0.108834762282
4200000000.0,0.0295798052173,0.111345812276,0.967848808034,-0.181972647626,0.967848808034,-0.181972647626,0.0295798052173,0.111345812276
4300000000.0,0.0305771781208,0.113846816431,0.966728634511,-0.186160252984,0.966728634511,-0.186160252984,0.0305771781208,0.113846816431
4400000000.0,0.0315958865884,0.116337567215,0.965584225363,-0.190337907144,0.965584225363,-0.190337907144,0.0315958865884,0.116337567215
4500000000.0,0.0326358065607,0.11881785903,0.96441570169,-0.194505408267,0.96441570169,-0.194505408267,0.0326358065607,0.11881785903
4600000000.0,0.0336968114234,0.121287488248,0.963223187095,-0.198662556427,0.963223187095,-0.198662556427,0.0336968114234,0.121287488248
4700000000.0,0.0347787720606,0.123746253242,0.962006807637,-0.20280915364,0.962006807637,-0.20280915364,0.0347787720606,0.123746253242
4800000000.0,0.035881556908,0.12619395442,0.960766691775,-0.206945003899,0.960766691775,-0.206945003899,0.035881556908,0.12619395442
4900000000.0,0.0370050320038,0.128630394255,0.959502970319,-0.211069913208,0.959502970319,-0.211069913208,0.0370050320038,0.128630394255
5000000000.0,0.0381490610396,0.131055377317,0.958215776376,-0.215183689612,0.958215776376,-0.215183689612,0.0381490610396,0.131055377317
5100000000.0,0.0393135054104,0.133468710299,0.956905245306,-0.219286143227,0.956905245306,-0.219286143227,0.0393135054104,0.133468710299
5200000000.0,0.0404982242639,0.135870202049,0.955571514666,-0.22337708627,0.955571514666,-0.22337708627,0.0404982242639,0.135870202049
5300000000.0,0.0417030745489,0.138259663595,0.954214724167,-0.227456333089,0.954214724167,-0.227456333089,0.0417030745489,0.138259663595
5400000000.0,0.0429279110641,0.14063690817,0.952835015624,-0.231523700188,0.952835015624,-0.231523700188,0.0429279110641,0.14063690817
5500000000.0,0.0441725865055,0.143001751244,0.951432532908,-0.235579006256,0.951432532908,-0.235579006256,0.0441725865055,0.143001751244
5600000000.0,0.0454369515143,0.145354010542,0.950007421898,-0.239622072193,0.950007421898,-0.239622072193,0.0454369515143,0.145354010542
5700000000.0,0.046720854724,0.147693506069,0.948559830435,-0.243652721129,0.948559830435,-0.243652721129,0.046720854724,0.147693506069
5800000000.0,0.0480241428072,0.150020060137,0.947089908276,-0.247670778458,0.947089908276,-0.247670778458,0.0480241428072,0.150020060137
5900000000.0,0.0493466605229,0.152333497383,0.945597807045,-0.251676071852,0.945597807045,-0.251676071852,0.0493466605229,0.152333497383
6000000000.0,0.0506882507622,0.15463364479,0.94408368019,-0.255668431285,0.94408368019,-0.255668431285,0.0506882507622,0.15463364479
6100000000.0,0.0520487545957,0.156920331711,0.942547682931,-0.259647689059,0.942547682931,-0.259647689059,0.0520487545957,0.156920331711
6200000000.0,0.0534280113188,0.159193389885,0.940989972221,-0.263613679817,0.940989972221,-0.263613679817,0.0534280113188,0.159193389885
6300000000.0,0.0548258584983,0.161452653455,0.939410706695,-0.267566240566,0.939410706695,-0.267566240566,0.0548258584983,0.161452653455
6400000000.0,0.0562421320184,0.163697958989,0.937810046626,-0.271505210697,0.937810046626,-0.271505210697,0.0562421320184,0.163697958989
6500000000.0,0.0576766661259,0.165929145493,0.936188153879,-0.275430431998,0.936188153879,-0.275430431998,0.0576766661259,0.165929145493
6600000000.0,0.0591292934767,0.168146054429,0.934545191865,-0.279341748672,0.934545191865,-0.279341748672,0.0591292934767,0.168146054429
6700000000.0,0.0605998451807,0.17034852973,0.932881325498,-0.283239007357,0.932881325498,-0.283239007357,0.0605998451807,0.17034852973
6800000000.0,0.0620881508476,0.172536417812,0.931196721145,-0.287122057133,0.931196721145,-0.287122057133,0.0620881508476,0.172536417812
6900000000.0,0.0635940386322,0.174709567591,0.929491546586,-0.290990749542,0.929491546586,-0.290990749542,0.0635940386322,0.174709567591
7000000000.0,0.0651173352792,0.176867830491,0.927765970964,-0.294844938599,0.927765970964,-0.294844938599,0.0651173352792,0.176867830491
7100000000.0,0.066657866169,0.179011060459,0.926020164744,-0.298684480802,0.926020164744,-0.298684480802,0.066657866169,0.179011060459
7200000000.0,0.0682154553617,0.181139113973,0.924254299665,-0.302509235146,0.924254299665,-0.302509235146,0.0682154553617,0.181139113973
7300000000.0,0.0697899256428,0.183251850056,0.922468548699,-0.306319063135,0.922468548699,-0.306319063135,0.0697899256428,0.183251850056
7400000000.0,0.0713810985672,0.185349130278,0.920663086001,-0.310113828784,0.920663086001,-0.310113828784,0.0713810985672,0.185349130278
7500000000.0,0.072988794504,0.187430818773,0.918838086871,-0.313893398638,0.918838086871,-0.313893398638,0.072988794504,0.187430818773
7600000000.0,0.0746128326806,0.189496782237,0.916993727705,-0.31765764177,0.916993727705,-0.31765764177,0.0746128326806,0.189496782237
7700000000.0,0.0762530312271,0.191546889944,0.915130185951,-0.321406429795,0.915130185951,-0.321406429795,0.0762530312271,0.191546889944
7800000000.0,0.0779092072201,0.193581013744,0.913247640069,-0.325139636874,0.913247640069,-0.325139636874,0.0779092072201,0.193581013744
7900000000.0,0.0795811767267,0.195599028071,0.911346269482,-0.328857139716,0.911346269482,-0.328857139716,0.0795811767267,0.195599028071
8000000000.0,0.0812687548476,0.197600809948,0.909426254538,-0.332558817589,0.909426254538,-0.332558817589,0.0812687548476,0.197600809948
8100000000.0,0.0829717557611,0.19958623899,0.907487776461,-0.336244552319,0.907487776461,-0.336244552319,0.0829717557611,0.19958623899
8200000000.0,0.0846899927658,0.201555197404,0.905531017312,-0.339914228294,0.905531017312,-0.339914228294,0.0846899927658,0.201555197404
8300000000.0,0.0864232783236,0.203507569996,0.903556159945,-0.343567732465,0.903556159945,-0.343567732465,0.0864232783236,0.203507569996
8400000000.0,0.0881714241027,0.205443244166,0.901563387963,-0.347204954353,0.901563387963,-0.347204954353,0.0881714241027,0.205443244166
8500000000.0,0.0899342410196,0.207362109913,0.899552885678,-0.35082578604,0.899552885678,-0.35082578604,0.0899342410196,0.207362109913
8600000000.0,0.0917115392814,0.209264059831,0.897524838066,-0.354430122179,0.897524838066,-0.354430122179,0.0917115392814,0.209264059831
8700000000.0,0.0935031284279,0.211148989111,0.895479430727,-0.358017859987,0.895479430727,-0.358017859987,0.0935031284279,0.211148989111
8800000000.0,0.0953088173729,0.213016795537,0.893416849844,-0.361588899243,0.893416849844,-0.361588899243,0.0953088173729,0.213016795537
8900000000.0,0.0971284144458,0.214867379484,0.891337282139,-0.365143142289,0.891337282139,-0.365143142289,0.0971284144458,0.214867379484
9000000000.0,0.0989617274324,0.216700643915,0.889240914836,-0.368680494027,0.889240914836,-0.368680494027,0.0989617274324,0.216700643915
9100000000.0,0.100808563616,0.218516494378,0.887127935614,-0.372200861911,0.887127935614,-0.372200861911,0.100808563616,0.218516494378
9200000000.0,0.102668729816,0.220314838996,0.884998532573,-0.375704155948,0.884998532573,-0.375704155948,0.102668729816,0.220314838996
9300000000.0,0.104542032433,0.22209558847,0.882852894193,-0.379190288687,0.882852894193,-0.379190288687,0.104542032433,0.22209558847
9400000000.0,0.10642827748,0.223858656066,0.88069120929,-0.382659175219,0.88069120929,-0.382659175219,0.10642827748,0.223858656066
9500000000.0,0.10832727063,0.225603957611,0.878513666979,-0.386110733166,0.878513666979,-0.386110733166,0.10832727063,0.225603957611
9600000000.0,0.110238817252,0.227331411486,0.876320456638,-0.389544882679,0.876320456638,-0.389544882679,0.110238817252,0.227331411486
9700000000.0,0.112162722446,0.229040938617,0.874111767865,-0.392961546424,0.874111767865,-0.392961546424,0.112162722446,0.229040938617
9800000000.0,0.114098791088,0.230732462468,0.871887790441,-0.396360649577,0.871887790441,-0.396360649577,0.114098791088,0.230732462468
9900000000.0,0.116046827862,0.23240590903,0.869648714294,-0.399742119816,0.869648714294,-0.399742119816,0.116046827862,0.23240590903
10000000000.0,0.118006637301,0.234061206811,0.867394729458,-0.403105887309,0.867394729458,-0.403105887309,0.118006637301,0.234061206811
