freq (GHz),S11_real,S11_imag,S21_real,S21_imag,S12_real,S12_imag,S22_real,S22_imag
100000000.0,0.105152155492,0.00423669534215,0.894843805719,-0.00591914221313,0.894843805719,-0.00591914221313,0.105152155492,0.00423669534215
200000000.0,0.105854187201,0.00845835432581,0.894135792156,-0.0118232665028,0.894135792156,-0.0118232665028,0.105854187201,0.00845835432581
300000000.0,0.106443108188,0.0126698492341,0.893537944685,-0.0177172624321,0.893537944685,-0.0177172624321,0.106443108188,0.0126698492341
400000000.0,0.107001252766,0.0168722824987,0.89296792771,-0.0236022481138,0.89296792771,-0.0236022481138,0.107001252766,0.0168722824987
500000000.0,0.107560323062,0.0210658818444,0.892394037882,-0.029478466151,0.892394037882,-0.029478466151,0.107560323062,0.0210658818444
600000000.0,0.108136448483,0.0252504895683,0.891800144567,-0.0353457731949,0.891800144567,-0.0353457731949,0.108136448483,0.0252504895683
700000000.0,0.108739106867,0.0294257384772,0.891176768657,-0.0412038160253,0.891176768657,-0.0412038160253,0.108739106867,0.0294257384772
800000000.0,0.109374383095,0.0335911336805,0.890517823938,-0.0470521134284,0.890517823938,-0.0470521134284,0.109374383095,0.0335911336805
900000000.0,0.110046421077,0.0377460966961,0.889819165096,-0.0528901003589,0.889819165096,-0.0528901003589,0.110046421077,0.0377460966961
1000000000.0,0.110758160253,0.0418899917267,0.889077851201,-0.0587171542556,0.889077851201,-0.0587171542556,0.110758160253,0.0418899917267
1100000000.0,0.111511745307,0.0460221424958,0.888291735997,-0.0645326119066,0.888291735997,-0.0645326119066,0.111511745307,0.0460221424958
1200000000.0,0.112308770486,0.050141843659,0.887459223564,-0.0703357808829,0.887459223564,-0.0703357808829,0.112308770486,0.050141843659
1300000000.0,0.113150433466,0.0542483688969,0.886579114468,-0.0761259476492,0.886579114468,-0.0761259476492,0.113150433466,0.0542483688969
1400000000.0,0.114037636583,0.0583409768753,0.885650504508,-0.0819023835371,0.885650504508,-0.0819023835371,0.114037636583,0.0583409768753
1500000000.0,0.114971055926,0.0624189157752,0.884672715637,-0.0876643492879,0.884672715637,-0.0876643492879,0.114971055926,0.0624189157752
1600000000.0,0.115951189944,0.0664814268342,0.883645247343,-0.0934110986029,0.883645247343,-0.0934110986029,0.115951189944,0.0664814268342
1700000000.0,0.116978394561,0.0705277471807,0.882567741538,-0.0991418809858,0.882567741538,-0.0991418809858,0.116978394561,0.0705277471807
1800000000.0,0.11805290913,0.0745571121514,0.881439956604,-0.104855944068,0.881439956604,-0.104855944068,0.11805290913,0.0745571121514
1900000000.0,0.119174876002,0.0785687572226,0.880261747816,-0.110552535544,0.880261747816,-0.110552535544,0.119174876002,0.0785687572226
2000000000.0,0.120344355563,0.0825619196451,0.879033052314,-0.116230904814,0.879033052314,-0.116230904814,0.120344355563,0.0825619196451
2100000000.0,0.121561337964,0.0865358398502,0.877753877362,-0.121890304393,0.877753877362,-0.121890304393,0.121561337964,0.0865358398502
2200000000.0,0.122825752425,0.0904897626729,0.876424291055,-0.127529991138,0.876424291055,-0.127529991138,0.122825752425,0.0904897626729
2300000000.0,0.124137474702,0.0944229384289,0.875044414841,-0.133149227331,0.875044414841,-0.133149227331,0.124137474702,0.0944229384289
2400000000.0,0.125496333173,0.0983346238725,0.873614417441,-0.138747281636,0.873614417441,-0.138747281636,0.125496333173,0.0983346238725
2500000000.0,0.126902113853,0.102224083054,0.872134509833,-0.144323429963,0.872134509833,-0.144323429963,0.126902113853,0.102224083054
2600000000.0,0.128354564568,0.106090588097,0.870604941074,-0.149876956246,0.870604941074,-0.149876956246,0.128354564568,0.106090588097
2700000000.0,0.129853398487,0.109933419898,0.869025994771,-0.155407153147,0.869025994771,-0.155407153147,0.129853398487,0.109933419898
2800000000.0,0.131398297119,0.113751868774,0.867397986084,-0.160913322704,0.867397986084,-0.160913322704,0.131398297119,0.113751868774
2900000000.0,0.132988912903,0.117545235049,0.865721259133,-0.16639477692,0.865721259133,-0.16639477692,0.132988912903,0.117545235049
3000000000.0,0.134624871457,0.121312829594,0.863996184753,-0.171850838305,0.863996184753,-0.171850838305,0.134624871457,0.121312829594
3100000000.0,0.13630577355,0.125053974331,0.862223158515,-0.177280840383,0.862223158515,-0.177280840383,0.13630577355,0.125053974331
3200000000.0,0.138031196858,0.128768002691,0.860402598978,-0.182684128149,0.860402598978,-0.182684128149,0.138031196858,0.128768002691
3300000000.0,0.139800697525,0.132454260041,0.858534946121,-0.188060058501,0.858534946121,-0.188060058501,0.139800697525,0.132454260041
3400000000.0,0.141613811575,0.13611210408,0.856620659936,-0.193408000632,0.856620659936,-0.193408000632,0.141613811575,0.13611210408
3500000000.0,0.143470056196,0.139740905202,0.854660219138,-0.198727336402,0.854660219138,-0.198727336402,0.143470056196,0.139740905202
3600000000.0,0.145368930915,0.143340046833,0.852654119996,-0.204017460669,0.852654119996,-0.204017460669,0.145368930915,0.143340046833
3700000000.0,0.147309918681,0.146908925743,0.850602875246,-0.209277781607,0.850602875246,-0.209277781607,0.147309918681,0.146908925743
3800000000.0,0.149292486874,0.150446952333,0.848507013083,-0.214507720991,0.848507013083,-0.214507720991,0.149292486874,0.150446952333
3900000000.0,0.151316088241,0.153953550895,0.846367076221,-0.21970671446,0.846367076221,-0.21970671446,0.151316088241,0.153953550895
4000000000.0,0.153380161785,0.157428159856,0.844183621013,-0.22487421176,0.844183621013,-0.22487421176,0.153380161785,0.157428159856
4100000000.0,0.155484133597,0.160870231992,0.841957216609,-0.230009676964,0.841957216609,-0.230009676964,0.155484133597,0.160870231992
4200000000.0,0.157627417646,0.164279234633,0.83968844417,-0.23511258867,0.83968844417,-0.23511258867,0.157627417646,0.164279234633
4300000000.0,0.159809416538,0.167654649837,0.837377896111,-0.240182440182,0.837377896111,-0.240182440182,0.159809416538,0.167654649837
4400000000.0,0.162029522231,0.170995974552,0.83502617538,-0.245218739669,0.83502617538,-0.245218739669,0.162029522231,0.170995974552
4500000000.0,0.164287116734,0.174302720753,0.832633894764,-0.250221010307,0.832633894764,-0.250221010307,0.164287116734,0.174302720753
4600000000.0,0.166581572769,0.17757441557,0.830201676224,-0.255188790403,0.830201676224,-0.255188790403,0.166581572769,0.17757441557
4700000000.0,0.168912254414,0.180810601391,0.827730150253,-0.260121633503,0.827730150253,-0.260121633503,0.168912254414,0.180810601391
4800000000.0,0.171278517724,0.184010835951,0.825219955253,-0.265019108476,0.825219955253,-0.265019108476,0.171278517724,0.184010835951
4900000000.0,0.173679711335,0.187174692402,0.822671736934,-0.269880799594,0.822671736934,-0.269880799594,0.173679711335,0.187174692402
5000000000.0,0.176115177044,0.190301759375,0.820086147729,-0.274706306582,0.820086147729,-0.274706306582,0.176115177044,0.190301759375
5100000000.0,0.17858425038,0.193391641014,0.817463846229,-0.279495244665,0.817463846229,-0.279495244665,0.17858425038,0.193391641014
5200000000.0,0.181086261151,0.196443957008,0.814805496628,-0.28424724459,0.814805496628,-0.28424724459,0.181086261151,0.196443957008
5300000000.0,0.183620533986,0.199458342595,0.812111768188,-0.288961952641,0.812111768188,-0.288961952641,0.183620533986,0.199458342595
5400000000.0,0.186186388853,0.202434448567,0.809383334714,-0.293639030633,0.809383334714,-0.293639030633,0.186186388853,0.202434448567
5500000000.0,0.188783141572,0.205371941246,0.806620874049,-0.298278155899,0.806620874049,-0.298278155899,0.188783141572,0.205371941246
5600000000.0,0.191410104309,0.208270502459,0.803825067569,-0.302879021258,0.803825067569,-0.302879021258,0.191410104309,0.208270502459
5700000000.0,0.194066586065,0.211129829493,0.800996599704,-0.307441334974,0.800996599704,-0.307441334974,0.194066586065,0.211129829493
5800000000.0,0.196751893143,0.213949635035,0.798136157464,-0.311964820699,0.798136157464,-0.311964820699,0.196751893143,0.213949635035
5900000000.0,0.199465329612,0.216729647114,0.795244429977,-0.316449217405,0.795244429977,-0.316449217405,0.199465329612,0.216729647114
6000000000.0,0.202206197758,0.219469609011,0.792322108038,-0.320894279309,0.792322108038,-0.320894279309,0.202206197758,0.219469609011
6100000000.0,0.204973798517,0.222169279176,0.789369883674,-0.325299775778,0.789369883674,-0.325299775778,0.204973798517,0.222169279176
6200000000.0,0.207767431908,0.22482843112,0.786388449712,-0.329665491229,0.786388449712,-0.329665491229,0.207767431908,0.22482843112
6300000000.0,0.210586397445,0.227446853309,0.783378499366,-0.333991225018,0.783378499366,-0.333991225018,0.210586397445,0.227446853309
6400000000.0,0.213429994545,0.230024349038,0.780340725829,-0.33827679132,0.780340725829,-0.33827679132,0.213429994545,0.230024349038
6500000000.0,0.216297522922,0.232560736297,0.77727582188,-0.342522018991,0.77727582188,-0.342522018991,0.216297522922,0.232560736297
6600000000.0,0.219188282968,0.235055847637,0.774184479496,-0.346726751435,0.774184479496,-0.346726751435,0.219188282968,0.235055847637
6700000000.0,0.222101576133,0.237509530012,0.771067389483,-0.350890846448,0.771067389483,-0.350890846448,0.222101576133,0.237509530012
6800000000.0,0.225036705282,0.239921644626,0.767925241108,-0.355014176062,0.767925241108,-0.355014176062,0.225036705282,0.239921644626
6900000000.0,0.227992975049,0.242292066763,0.76475872175,-0.359096626382,0.76475872175,-0.359096626382,0.227992975049,0.242292066763
7000000000.0,0.230969692178,0.244620685616,0.761568516555,-0.363138097405,0.761568516555,-0.363138097405,0.230969692178,0.244620685616
7100000000.0,0.23396616586,0.246907404102,0.758355308105,-0.367138502845,0.758355308105,-0.367138502845,0.23396616586,0.246907404102
7200000000.0,0.236981708045,0.249152138676,0.755119776096,-0.371097769944,0.755119776096,-0.371097769944,0.236981708045,0.249152138676
7300000000.0,0.240015633761,0.251354819137,0.751862597028,-0.375015839273,0.751862597028,-0.375015839273,0.240015633761,0.251354819137
7400000000.0,0.243067261409,0.253515388423,0.748584443904,-0.378892664537,0.748584443904,-0.378892664537,0.243067261409,0.253515388423
7500000000.0,0.246135913055,0.25563380241,0.745285985937,-0.382728212364,0.745285985937,-0.382728212364,0.246135913055,0.25563380241
7600000000.0,0.249220914712,0.257710029696,0.741967888272,-0.386522462098,0.741967888272,-0.386522462098,0.249220914712,0.257710029696
7700000000.0,0.252321596607,0.259744051383,0.738630811715,-0.390275405578,0.738630811715,-0.390275405578,0.252321596607,0.259744051383
7800000000.0,0.255437293441,0.261735860863,0.73527541247,-0.393987046918,0.73527541247,-0.393987046918,0.255437293441,0.261735860863
7900000000.0,0.258567344641,0.263685463581,0.731902341893,-0.397657402283,0.731902341893,-0.397657402283,0.258567344641,0.263685463581
8000000000.0,0.261711094597,0.265592876817,0.728512246252,-0.401286499657,0.728512246252,-0.401286499657,0.261711094597,0.265592876817
8100000000.0,0.264867892894,0.267458129442,0.725105766489,-0.404874378613,0.725105766489,-0.404874378613,0.264867892894,0.267458129442
8200000000.0,0.268037094532,0.269281261691,0.721683538008,-0.408421090073,0.721683538008,-0.408421090073,0.268037094532,0.269281261691
8300000000.0,0.271218060134,0.271062324917,0.718246190461,-0.411926696074,0.718246190461,-0.411926696074,0.271218060134,0.271062324917
8400000000.0,0.27441015615,0.272801381355,0.714794347544,-0.41539126952,0.714794347544,-0.41539126952,0.27441015615,0.272801381355
8500000000.0,0.277612755046,0.274498503872,0.711328626809,-0.418814893946,0.711328626809,-0.418814893946,0.277612755046,0.274498503872
8600000000.0,0.280825235488,0.276153775725,0.707849639479,-0.422197663266,0.707849639479,-0.422197663266,0.280825235488,0.276153775725
8700000000.0,0.284046982511,0.277767290314,0.704357990276,-0.425539681526,0.704357990276,-0.425539681526,0.284046982511,0.277767290314
8800000000.0,0.287277387688,0.279339150932,0.700854277254,-0.42884106266,0.700854277254,-0.42884106266,0.287277387688,0.279339150932
8900000000.0,0.29051584928,0.280869470514,0.69733909165,-0.432101930237,0.69733909165,-0.432101930237,0.29051584928,0.280869470514
9000000000.0,0.293761772381,0.282358371388,0.693813017732,-0.435322417211,0.693813017732,-0.435322417211,0.293761772381,0.282358371388
9100000000.0,0.297014569059,0.283805985026,0.690276632663,-0.438502665669,0.690276632663,-0.438502665669,0.297014569059,0.283805985026
9200000000.0,0.300273658481,0.285212451788,0.686730506374,-0.441642826583,0.686730506374,-0.441642826583,0.300273658481,0.285212451788
9300000000.0,0.303538467034,0.286577920677,0.683175201443,-0.444743059558,0.683175201443,-0.444743059558,0.303538467034,0.286577920677
9400000000.0,0.306808428435,0.287902549082,0.679611272981,-0.44780353258,0.679611272981,-0.44780353258,0.306808428435,0.287902549082
9500000000.0,0.310082983835,0.289186502533,0.67603926853,-0.450824421765,0.67603926853,-0.450824421765,0.310082983835,0.289186502533
9600000000.0,0.313361581915,0.290429954449,0.672459727966,-0.453805911113,0.672459727966,-0.453805911113,0.313361581915,0.290429954449
9700000000.0,0.316643678971,0.291633085888,0.668873183414,-0.456748192258,0.668873183414,-0.456748192258,0.316643678971,0.291633085888
9800000000.0,0.319928738996,0.292796085305,0.665280159162,-0.45965146422,0.665280159162,-0.45965146422,0.319928738996,0.292796085305
9900000000.0,0.323216233752,0.293919148301,0.661681171592,-0.462515933159,0.661681171592,-0.462515933159,0.323216233752,0.293919148301
10000000000.0,0.326505642832,0.295002477379,0.658076729117,-0.465341812132,0.658076729117,-0.465341812132,0.326505642832,0.295002477379
