freq (GHz),S11_real,S11_imag,S21_real,S21_imag,S12_real,S12_imag,S22_real,S22_imag
100000000.0,0.00114719631383,-0.00184997630946,0.998811166877,-0.00625245070684,0.998811166877,-0.00625245070684,0.00114719631383,-0.00184997630946
200000000.0,0.00111642615287,-0.0036997885508,0.998735622721,-0.01250465624,0.998735622721,-0.01250465624,0.00111642615287,-0.0036997885508
300000000.0,0.00106049921024,-0.00554917423551,0.998619558121,-0.0187564132988,0.998619558121,-0.0187564132988,0.00106049921024,-0.00554917423551
400000000.0,0.000980424851417,-0.00739787213587,0.998461967757,-0.0250074721681,0.998461967757,-0.0250074721681,0.000980424851417,-0.00739787213587
500000000.0,0.000876596138917,-0.00924561654515,0.998262467232,-0.0312575644554,0.998262467232,-0.0312575644554,0.000876596138917,-0.00924561654515
600000000.0,0.000749219337723,-0.0110921378212,0.998020864111,-0.0375064103709,0.998020864111,-0.0375064103709,0.000749219337723,-0.0110921378212
700000000.0,0.000598423109164,-0.0129371630508,0.997737049101,-0.0437537221184,0.997737049101,-0.0437537221184,0.000598423109164,-0.0129371630508
800000000.0,0.000424298397662,-0.0147804165886,0.997410956468,-0.0499992058364,0.997410956468,-0.0499992058364,0.000424298397662,-0.0147804165886
900000000.0,0.00022691622298,-0.0166216204851,0.997042546482,-0.0562425628497,0.997042546482,-0.0562425628497,0.00022691622298,-0.0166216204851
1000000000.0,6.33672595063e-06,-0.0184604948304,0.996631796571,-0.062483490544,0.996631796571,-0.062483490544,6.33672595063e-06,-0.0184604948304
1100000000.0,-0.00023738578106,-0.0202967580402,0.996178696442,-0.0687216830138,0.996178696442,-0.0687216830138,-0.00023738578106,-0.0202967580402
1200000000.0,-0.000504199786935,-0.0221301270986,0.995683245199,-0.0749568315642,0.995683245199,-0.0749568315642,-0.000504199786935,-0.0221301270986
1300000000.0,-0.000794054662876,-0.023960317768,0.995145449553,-0.0811886251138,0.995145449553,-0.0811886251138,-0.000794054662876,-0.023960317768
1400000000.0,-0.00110689938954,-0.0257870447767,0.994565322659,-0.0874167505281,0.994565322659,-0.0874167505281,-0.00110689938954,-0.0257870447767
1500000000.0,-0.00144268168034,-0.0276100219867,0.993942883345,-0.0936408929023,0.993942883345,-0.0936408929023,-0.00144268168034,-0.0276100219867
1600000000.0,-0.0018013473583,-0.0294289625473,0.993278155567,-0.0998607358051,0.993278155567,-0.0998607358051,-0.0018013473583,-0.0294289625473
1700000000.0,-0.00218283990097,-0.0312435790378,0.992571168039,-0.106075961494,0.992571168039,-0.106075961494,-0.00218283990097,-0.0312435790378
1800000000.0,-0.0025871001006,-0.0330535836003,0.991821953956,-0.11228625111,0.991821953956,-0.11228625111,-0.0025871001006,-0.0330535836003
1900000000.0,-0.00301406580522,-0.0348586880651,0.991030550798,-0.118491284846,0.991030550798,-0.118491284846,-0.00301406580522,-0.0348586880651
2000000000.0,-0.00346367171832,-0.03665860407,0.990197000181,-0.124690742113,0.990197000181,-0.124690742113,-0.00346367171832,-0.03665860407
2100000000.0,-0.00393584924165,-0.0384530431739,0.989321347744,-0.130884301683,0.989321347744,-0.130884301683,-0.00393584924165,-0.0384530431739
2200000000.0,-0.00443052635057,-0.0402417169665,0.988403643064,-0.13707164183,0.988403643064,-0.13707164183,-0.00443052635057,-0.0402417169665
2300000000.0,-0.00494762749443,-0.0420243371737,0.987443939587,-0.143252440456,0.987443939587,-0.143252440456,-0.00494762749443,-0.0420243371737
2400000000.0,-0.00548707351653,-0.0438006157599,0.98644229458,-0.149426375216,0.98644229458,-0.149426375216,-0.00548707351653,-0.0438006157599
2500000000.0,-0.00604878158973,-0.0455702650276,0.985398769078,-0.15559312363,0.985398769078,-0.15559312363,-0.00604878158973,-0.0455702650276
2600000000.0,-0.00663266516456,-0.0473329977141,0.98431342786,-0.161752363199,0.98431342786,-0.161752363199,-0.00663266516456,-0.0473329977141
2700000000.0,-0.00723863392789,-0.0490885270859,0.983186339406,-0.167903771507,0.983186339406,-0.167903771507,-0.00723863392789,-0.0490885270859
2800000000.0,-0.00786659377014,-0.0508365670314,0.982017575881,-0.174047026325,0.982017575881,-0.174047026325,-0.00786659377014,-0.0508365670314
2900000000.0,-0.00851644675989,-0.0525768321517,0.980807213105,-0.180181805711,0.980807213105,-0.180181805711,-0.00851644675989,-0.0525768321517
3000000000.0,-0.00918809112478,-0.054309037849,0.979555330529,-0.1863077881,0.979555330529,-0.1863077881,-0.00918809112478,-0.054309037849
3100000000.0,-0.00988142123788,-0.0560329004143,0.978262011223,-0.192424652403,0.978262011223,-0.192424652403,-0.00988142123788,-0.0560329004143
3200000000.0,-0.0105963276089,-0.057748137113,0.976927341842,-0.198532078092,0.976927341842,-0.198532078092,-0.0105963276089,-0.057748137113
3300000000.0,-0.0113326968796,-0.0594544662697,0.97555141262,-0.20462974529,0.97555141262,-0.20462974529,-0.0113326968796,-0.0594544662697
3400000000.0,-0.0120904118231,-0.0611516073505,0.974134317337,-0.210717334854,0.974134317337,-0.210717334854,-0.0120904118231,-0.0611516073505
3500000000.0,-0.0128693513469,-0.0628392810457,0.972676153306,-0.21679452846,0.972676153306,-0.21679452846,-0.0128693513469,-0.0628392810457
3600000000.0,-0.0136693904986,-0.0645172093496,0.97117702135,-0.222861008682,0.97117702135,-0.222861008682,-0.0136693904986,-0.0645172093496
3700000000.0,-0.0144904004748,-0.0661851156402,0.969637025777,-0.228916459072,0.969637025777,-0.228916459072,-0.0144904004748,-0.0661851156402
3800000000.0,-0.015332248633,-0.0678427247573,0.968056274361,-0.234960564238,0.968056274361,-0.234960564238,-0.015332248633,-0.0678427247573
3900000000.0,-0.0161947985055,-0.0694897630793,0.966434878316,-0.240993009918,0.966434878316,-0.240993009918,-0.0161947985055,-0.0694897630793
4000000000.0,-0.0170779098164,-0.0711259585996,0.96477295227,-0.247013483056,0.96477295227,-0.247013483056,-0.0170779098164,-0.0711259585996
4100000000.0,-0.0179814384999,-0.0727510410008,0.963070614242,-0.253021671872,0.963070614242,-0.253021671872,-0.0179814384999,-0.0727510410008
4200000000.0,-0.0189052367216,-0.0743647417287,0.961327985611,-0.259017265936,0.961327985611,-0.259017265936,-0.0189052367216,-0.0743647417287
4300000000.0,-0.0198491529012,-0.0759667940644,0.959545191092,-0.264999956233,0.959545191092,-0.264999956233,-0.0198491529012,-0.0759667940644
4400000000.0,-0.0208130317377,-0.0775569331965,0.957722358705,-0.270969435235,0.957722358705,-0.270969435235,-0.0208130317377,-0.0775569331965
4500000000.0,-0.0217967142361,-0.0791348962906,0.955859619742,-0.276925396967,0.955859619742,-0.276925396967,-0.0217967142361,-0.0791348962906
4600000000.0,-0.0228000377355,-0.0807004225589,0.953957108739,-0.282867537069,0.953957108739,-0.282867537069,-0.0228000377355,-0.0807004225589
4700000000.0,-0.0238228359399,-0.0822532533285,0.952014963441,-0.288795552862,0.952014963441,-0.288795552862,-0.0238228359399,-0.0822532533285
4800000000.0,-0.0248649389495,-0.0837931321077,0.95003332477,-0.29470914341,0.95003332477,-0.29470914341,-0.0248649389495,-0.0837931321077
4900000000.0,-0.0259261732943,-0.0853198046528,0.948012336788,-0.300608009583,0.948012336788,-0.300608009583,-0.0259261732943,-0.0853198046528
5000000000.0,-0.027006361969,-0.0868330190319,0.94595214666,-0.306491854111,0.94595214666,-0.306491854111,-0.027006361969,-0.0868330190319
5100000000.0,-0.0281053244693,-0.0883325256891,0.94385290462,-0.312360381649,0.94385290462,-0.312360381649,-0.0281053244693,-0.0883325256891
5200000000.0,-0.0292228768298,-0.0898180775067,0.94171476393,-0.318213298826,0.94171476393,-0.318213298826,-0.0292228768298,-0.0898180775067
5300000000.0,-0.0303588316625,-0.0912894298665,0.93953788084,-0.324050314309,0.93953788084,-0.324050314309,-0.0303588316625,-0.0912894298665
5400000000.0,-0.0315129981978,-0.0927463407098,0.937322414552,-0.329871138852,0.937322414552,-0.329871138852,-0.0315129981978,-0.0927463407098
5500000000.0,-0.0326851823261,-0.0941885705964,0.93506852717,-0.335675485348,0.93506852717,-0.335675485348,-0.0326851823261,-0.0941885705964
5600000000.0,-0.0338751866403,-0.0956158827627,0.932776383668,-0.341463068884,0.932776383668,-0.341463068884,-0.0338751866403,-0.0956158827627
5700000000.0,-0.0350828104798,-0.0970280431775,0.930446151837,-0.347233606789,0.930446151837,-0.347233606789,-0.0350828104798,-0.0970280431775
5800000000.0,-0.0363078499761,-0.0984248205981,0.928078002246,-0.352986818681,0.928078002246,-0.352986818681,-0.0363078499761,-0.0984248205981
5900000000.0,-0.0375500980986,-0.0998059866237,0.925672108197,-0.35872242652,0.925672108197,-0.35872242652,-0.0375500980986,-0.0998059866237
6000000000.0,-0.038809344702,-0.101171315749,0.923228645674,-0.364440154646,0.923228645674,-0.364440154646,-0.038809344702,-0.101171315749
6100000000.0,-0.0400853765745,-0.102520585415,0.920747793303,-0.37013972983,0.920747793303,-0.37013972983,-0.0400853765745,-0.102520585415
6200000000.0,-0.0413779774873,-0.103853576061,0.918229732296,-0.375820881317,0.918229732296,-0.375820881317,-0.0413779774873,-0.103853576061
6300000000.0,-0.0426869282443,-0.105170071172,0.915674646409,-0.381483340862,0.915674646409,-0.381483340862,-0.0426869282443,-0.105170071172
6400000000.0,-0.0440120067334,-0.106469857327,0.91308272189,-0.387126842776,0.91308272189,-0.387126842776,-0.0440120067334,-0.106469857327
6500000000.0,-0.0453529879787,-0.107752724246,0.91045414743,-0.392751123966,0.91045414743,-0.392751123966,-0.0453529879787,-0.107752724246
6600000000.0,-0.0467096441925,-0.109018464837,0.907789114108,-0.398355923966,0.907789114108,-0.398355923966,-0.0467096441925,-0.109018464837
6700000000.0,-0.0480817448293,-0.110266875236,0.905087815346,-0.403940984982,0.905087815346,-0.403940984982,-0.0480817448293,-0.110266875236
6800000000.0,-0.0494690566401,-0.111497754854,0.902350446853,-0.409506051919,0.902350446853,-0.409506051919,-0.0494690566401,-0.111497754854
6900000000.0,-0.0508713437268,-0.112710906417,0.899577206571,-0.41505087242,0.899577206571,-0.41505087242,-0.0508713437268,-0.112710906417
7000000000.0,-0.0522883675983,-0.113906136005,0.896768294628,-0.420575196896,0.896768294628,-0.420575196896,-0.0522883675983,-0.113906136005
7100000000.0,-0.0537198872265,-0.115083253092,0.893923913276,-0.426078778558,0.893923913276,-0.426078778558,-0.0537198872265,-0.115083253092
7200000000.0,-0.0551656591032,-0.116242070584,0.891044266843,-0.431561373443,0.891044266843,-0.431561373443,-0.0551656591032,-0.116242070584
7300000000.0,-0.0566254372973,-0.117382404857,0.888129561676,-0.437022740449,0.888129561676,-0.437022740449,-0.0566254372973,-0.117382404857
7400000000.0,-0.0580989735132,-0.118504075786,0.885180006086,-0.442462641353,0.885180006086,-0.442462641353,-0.0580989735132,-0.118504075786
7500000000.0,-0.0595860171484,-0.119606906786,0.882195810292,-0.447880840842,0.882195810292,-0.447880840842,-0.0595860171484,-0.119606906786
7600000000.0,-0.0610863153534,-0.120690724841,0.879177186368,-0.453277106537,0.879177186368,-0.453277106537,-0.0610863153534,-0.120690724841
7700000000.0,-0.0625996130899,-0.121755360534,0.876124348182,-0.458651209012,0.876124348182,-0.458651209012,-0.0625996130899,-0.121755360534
7800000000.0,-0.0641256531914,-0.12280064808,0.873037511344,-0.464002921816,0.873037511344,-0.464002921816,-0.0641256531914,-0.12280064808
7900000000.0,-0.0656641764229,-0.12382642535,0.869916893147,-0.469332021496,0.869916893147,-0.469332021496,-0.0656641764229,-0.12382642535
8000000000.0,-0.0672149215409,-0.124832533905,0.86676271251,-0.474638287612,0.86676271251,-0.474638287612,-0.0672149215409,-0.124832533905
8100000000.0,-0.0687776253549,-0.125818819015,0.863575189925,-0.479921502754,0.863575189925,-0.479921502754,-0.0687776253549,-0.125818819015
8200000000.0,-0.0703520227875,-0.126785129688,0.860354547391,-0.48518145256,0.860354547391,-0.48518145256,-0.0703520227875,-0.126785129688
8300000000.0,-0.0719378469362,-0.127731318691,0.857101008366,-0.490417925729,0.857101008366,-0.490417925729,-0.0719378469362,-0.127731318691
8400000000.0,-0.0735348291344,-0.128657242574,0.853814797704,-0.495630714031,0.853814797704,-0.495630714031,-0.0735348291344,-0.128657242574
8500000000.0,-0.0751426990131,-0.129562761689,0.8504961416,-0.500819612325,0.8504961416,-0.500819612325,-0.0751426990131,-0.129562761689
8600000000.0,-0.0767611845626,-0.130447740213,0.847145267531,-0.505984418562,0.847145267531,-0.505984418562,-0.0767611845626,-0.130447740213
8700000000.0,-0.0783900121942,-0.13131204616,0.843762404198,-0.5111249338,0.843762404198,-0.5111249338,-0.0783900121942,-0.13131204616
8800000000.0,-0.0800289068022,-0.132155551406,0.84034778147,-0.516240962208,0.84034778147,-0.516240962208,-0.0800289068022,-0.132155551406
8900000000.0,-0.0816775918255,-0.132978131696,0.836901630326,-0.521332311072,0.836901630326,-0.521332311072,-0.0816775918255,-0.132978131696
9000000000.0,-0.0833357893103,-0.133779666667,0.833424182799,-0.526398790802,0.833424182799,-0.526398790802,-0.0833357893103,-0.133779666667
9100000000.0,-0.085003219971,-0.134560039855,0.829915671914,-0.531440214937,0.829915671914,-0.531440214937,-0.085003219971,-0.134560039855
9200000000.0,-0.0866796032532,-0.135319138711,0.826376331639,-0.53645640014,0.826376331639,-0.53645640014,-0.0866796032532,-0.135319138711
9300000000.0,-0.0883646573946,-0.136056854611,0.822806396818,-0.54144716621,0.822806396818,-0.54144716621,-0.0883646573946,-0.136056854611
9400000000.0,-0.0900580994875,-0.136773082863,0.819206103124,-0.546412336072,0.819206103124,-0.546412336072,-0.0900580994875,-0.136773082863
9500000000.0,-0.0917596455402,-0.137467722718,0.815575686997,-0.551351735781,0.815575686997,-0.551351735781,-0.0917596455402,-0.137467722718
9600000000.0,-0.0934690105383,-0.138140677379,0.811915385588,-0.556265194519,0.811915385588,-0.556265194519,-0.0934690105383,-0.138140677379
9700000000.0,-0.0951859085064,-0.138791854004,0.808225436704,-0.56115254459,0.808225436704,-0.56115254459,-0.0951859085064,-0.138791854004
9800000000.0,-0.0969100525691,-0.139421163712,0.804506078754,-0.566013621413,0.804506078754,-0.566013621413,-0.0969100525691,-0.139421163712
9900000000.0,-0.098641155012,-0.140028521586,0.800757550691,-0.570848263521,0.800757550691,-0.570848263521,-0.098641155012,-0.140028521586
10000000000.0,-0.100378927343,-0.140613846679,0.79698009196,-0.575656312549,0.79698009196,-0.575656312549,-0.100378927343,-0.140613846679
