freq (GHz),S11_real,S11_imag,S21_real,S21_imag,S12_real,S12_imag,S22_real,S22_imag
100000000.0,0.00154875407194,-0.00154912394279,0.998429751834,-0.00396716584123,0.998429751834,-0.00396716584123,0.00154875407194,-0.00154912394279
200000000.0,0.00153814219256,-0.00309817988432,0.998389424724,-0.00793416693507,0.998389424724,-0.00793416693507,0.00153814219256,-0.00309817988432
300000000.0,0.00151251676913,-0.00464705092247,0.998333668628,-0.0119009259697,0.998333668628,-0.0119009259697,0.00151251676913,-0.00464705092247
400000000.0,0.0014732268467,-0.00619563143975,0.998261138539,-0.0158673496608,0.998261138539,-0.0158673496608,0.0014732268467,-0.00619563143975
500000000.0,0.00142079329699,-0.00774381795467,0.998171319325,-0.0198333402751,0.998171319325,-0.0198333402751,0.00142079329699,-0.00774381795467
600000000.0,0.00135548370533,-0.00929150775699,0.998063950867,-0.0237987978407,0.998063950867,-0.0237987978407,0.00135548370533,-0.00929150775699
700000000.0,0.00127745839682,-0.0108385984735,0.997938882056,-0.0277636210203,0.997938882056,-0.0277636210203,0.00127745839682,-0.0108385984735
800000000.0,0.00118682369247,-0.0123849878945,0.997796017548,-0.0317277075548,0.997796017548,-0.0317277075548,0.00118682369247,-0.0123849878945
900000000.0,0.00108365560543,-0.0139305738981,0.997635294084,-0.0356909545239,0.997635294084,-0.0356909545239,0.00108365560543,-0.0139305738981
1000000000.0,0.000968011844279,-0.0154752544159,0.997456668491,-0.0396532585157,0.997456668491,-0.0396532585157,0.000968011844279,-0.0154752544159
1100000000.0,0.000839938481431,-0.0170189274207,0.997260111028,-0.043614515744,0.997260111028,-0.043614515744,0.000839938481431,-0.0170189274207
1200000000.0,0.000699473924146,-0.0185614909239,0.997045601416,-0.0475746221359,0.997045601416,-0.0475746221359,0.000699473924146,-0.0185614909239
1300000000.0,0.000546651411442,-0.0201028429801,0.996813126349,-0.0515334733978,0.996813126349,-0.0515334733978,0.000546651411442,-0.0201028429801
1400000000.0,0.000381500654223,-0.0216428816941,0.996562677859,-0.05549096507,0.996562677859,-0.05549096507,0.000381500654223,-0.0216428816941
1500000000.0,0.000204048952138,-0.0231815052304,0.996294252197,-0.0594469925698,0.996294252197,-0.0594469925698,0.000204048952138,-0.0231815052304
1600000000.0,1.43219773401e-05,-0.024718611824,0.996007849059,-0.06340145123,0.996007849059,-0.06340145123,1.43219773403e-05,-0.024718611824
1700000000.0,-0.000187655661242,-0.0262540997918,0.995703471019,-0.06735423633,0.995703471019,-0.06735423633,-0.000187655661242,-0.0262540997918
1800000000.0,-0.000401860002668,-0.0277878675442,0.995381123114,-0.0713052431252,0.995381123114,-0.0713052431252,-0.000401860002668,-0.0277878675442
1900000000.0,-0.000628267422533,-0.0293198135971,0.995040812536,-0.0752543668722,0.995040812536,-0.0752543668722,-0.000628267422533,-0.0293198135971
2000000000.0,-0.000866854395508,-0.0308498365842,0.994682548392,-0.0792015028517,0.994682548392,-0.0792015028517,-0.000866854395509,-0.0308498365842
2100000000.0,-0.00111759731162,-0.0323778352691,0.99430634152,-0.0831465463902,0.99430634152,-0.0831465463902,-0.00111759731162,-0.0323778352691
2200000000.0,-0.00138047233232,-0.0339037085572,0.993912204345,-0.0870893928794,0.993912204345,-0.0870893928794,-0.00138047233232,-0.0339037085572
2300000000.0,-0.00165545527642,-0.035427355508,0.993500150762,-0.0910299377951,0.993500150762,-0.0910299377951,-0.00165545527642,-0.035427355508
2400000000.0,-0.00194252152892,-0.036948675347,0.993070196042,-0.094968076714,0.993070196042,-0.094968076714,-0.00194252152892,-0.036948675347
2500000000.0,-0.00224164596738,-0.0384675674776,0.992622356759,-0.098903705331,0.992622356759,-0.098903705331,-0.00224164596737,-0.0384675674776
2600000000.0,-0.00255280290207,-0.0399839314929,0.992156650723,-0.102836719474,0.992156650723,-0.102836719474,-0.00255280290206,-0.0399839314929
2700000000.0,-0.00287596602713,-0.0414976671876,0.99167309693,-0.106767015122,0.99167309693,-0.106767015122,-0.00287596602713,-0.0414976671876
2800000000.0,-0.00321110838038,-0.0430086745694,0.991171715517,-0.110694488413,0.991171715517,-0.110694488413,-0.00321110838038,-0.0430086745694
2900000000.0,-0.00355820231008,-0.0445168538707,0.990652527726,-0.114619035667,0.990652527726,-0.114619035667,-0.00355820231008,-0.0445168538707
3000000000.0,-0.0039172194476,-0.0460221055599,0.99011555587,-0.118540553392,0.99011555587,-0.118540553392,-0.0039172194476,-0.0460221055599
3100000000.0,-0.00428813068463,-0.0475243303527,0.989560823307,-0.122458938304,0.989560823307,-0.122458938304,-0.00428813068463,-0.0475243303527
3200000000.0,-0.00467090615435,-0.0490234292237,0.988988354416,-0.126374087332,0.988988354416,-0.126374087332,-0.00467090615435,-0.0490234292237
3300000000.0,-0.00506551521585,-0.0505193034171,0.988398174573,-0.130285897638,0.988398174573,-0.130285897638,-0.00506551521585,-0.0505193034171
3400000000.0,-0.00547192644127,-0.0520118544578,0.987790310135,-0.134194266627,0.987790310135,-0.134194266627,-0.00547192644127,-0.0520118544578
3500000000.0,-0.00589010760519,-0.0535009841626,0.987164788421,-0.138099091956,0.987164788421,-0.138099091956,-0.00589010760519,-0.0535009841626
3600000000.0,-0.0063200256761,-0.0549865946507,0.986521637701,-0.142000271551,0.986521637701,-0.142000271551,-0.0063200256761,-0.0549865946507
3700000000.0,-0.00676164680944,-0.056468588355,0.985860887174,-0.145897703614,0.985860887174,-0.145897703614,-0.00676164680944,-0.056468588355
3800000000.0,-0.00721493634217,-0.0579468680319,0.985182566965,-0.149791286638,0.985182566965,-0.149791286638,-0.00721493634217,-0.0579468680319
3900000000.0,-0.00767985878855,-0.0594213367727,0.984486708104,-0.153680919416,0.984486708104,-0.153680919416,-0.00767985878855,-0.0594213367727
4000000000.0,-0.00815637783706,-0.0608918980136,0.983773342524,-0.157566501052,0.983773342524,-0.157566501052,-0.00815637783706,-0.0608918980136
4100000000.0,-0.00864445634826,-0.0623584555462,0.98304250304,-0.161447930975,0.98304250304,-0.161447930975,-0.00864445634826,-0.0623584555462
4200000000.0,-0.00914405635347,-0.0638209135276,0.98229422335,-0.165325108944,0.98229422335,-0.165325108944,-0.00914405635347,-0.0638209135276
4300000000.0,-0.00965513905434,-0.0652791764908,0.981528538019,-0.169197935065,0.981528538019,-0.169197935065,-0.00965513905434,-0.0652791764908
4400000000.0,-0.0101776648229,-0.0667331493549,0.980745482471,-0.173066309797,0.980745482471,-0.173066309797,-0.0101776648229,-0.0667331493549
4500000000.0,-0.0107115932024,-0.0681827374347,0.979945092983,-0.176930133964,0.979945092983,-0.176930133964,-0.0107115932024,-0.0681827374347
4600000000.0,-0.0112568829084,-0.0696278464506,0.979127406673,-0.180789308764,0.979127406673,-0.180789308764,-0.0112568829084,-0.0696278464506
4700000000.0,-0.0118134918311,-0.0710683825389,0.978292461494,-0.184643735779,0.978292461494,-0.184643735779,-0.0118134918311,-0.0710683825389
4800000000.0,-0.0123813770367,-0.072504252261,0.977440296226,-0.188493316988,0.977440296226,-0.188493316988,-0.0123813770367,-0.072504252261
4900000000.0,-0.0129604947711,-0.073935362613,0.97657095047,-0.192337954771,0.97657095047,-0.192337954771,-0.0129604947711,-0.073935362613
5000000000.0,-0.0135508004621,-0.0753616210355,0.975684464634,-0.196177551924,0.975684464634,-0.196177551924,-0.0135508004621,-0.0753616210355
5100000000.0,-0.0141522487229,-0.0767829354227,0.974780879933,-0.200012011665,0.974780879933,-0.200012011665,-0.0141522487229,-0.0767829354227
5200000000.0,-0.0147647933564,-0.0781992141319,0.973860238376,-0.203841237644,0.973860238376,-0.203841237644,-0.0147647933564,-0.0781992141319
5300000000.0,-0.0153883873583,-0.0796103659925,0.972922582763,-0.207665133955,0.972922582763,-0.207665133955,-0.0153883873583,-0.0796103659925
5400000000.0,-0.0160229829222,-0.0810163003151,0.971967956673,-0.211483605139,0.971967956673,-0.211483605139,-0.0160229829222,-0.0810163003151
5500000000.0,-0.0166685314434,-0.0824169269007,0.970996404459,-0.2152965562,0.970996404459,-0.2152965562,-0.0166685314434,-0.0824169269007
5600000000.0,-0.0173249835242,-0.0838121560493,0.970007971242,-0.219103892606,0.970007971242,-0.219103892606,-0.0173249835242,-0.0838121560493
5700000000.0,-0.0179922889787,-0.0852018985688,0.969002702901,-0.222905520307,0.969002702901,-0.222905520307,-0.0179922889787,-0.0852018985688
5800000000.0,-0.0186703968379,-0.0865860657835,0.967980646065,-0.226701345735,0.967980646065,-0.226701345735,-0.0186703968379,-0.0865860657835
5900000000.0,-0.0193592553552,-0.0879645695429,0.966941848109,-0.230491275815,0.966941848109,-0.230491275815,-0.0193592553552,-0.0879645695429
6000000000.0,-0.020058812012,-0.0893373222301,0.965886357144,-0.234275217979,0.965886357144,-0.234275217979,-0.020058812012,-0.0893373222301
6100000000.0,-0.0207690135236,-0.0907042367697,0.964814222011,-0.238053080163,0.964814222011,-0.238053080163,-0.0207690135236,-0.0907042367697
6200000000.0,-0.0214898058449,-0.0920652266368,0.96372549227,-0.241824770827,0.96372549227,-0.241824770827,-0.0214898058449,-0.0920652266368
6300000000.0,-0.0222211341767,-0.0934202058642,0.962620218198,-0.245590198953,0.962620218198,-0.245590198953,-0.0222211341767,-0.0934202058642
6400000000.0,-0.0229629429717,-0.0947690890512,0.961498450776,-0.249349274059,0.961498450776,-0.249349274059,-0.0229629429717,-0.0947690890512
6500000000.0,-0.0237151759415,-0.0961117913709,0.960360241685,-0.253101906204,0.960360241685,-0.253101906204,-0.0237151759415,-0.0961117913709
6600000000.0,-0.0244777760625,-0.0974482285783,0.959205643297,-0.256848005996,0.959205643297,-0.256848005996,-0.0244777760625,-0.0974482285783
6700000000.0,-0.025250685583,-0.0987783170177,0.958034708666,-0.260587484601,0.958034708666,-0.260587484601,-0.025250685583,-0.0987783170177
6800000000.0,-0.0260338460299,-0.100101973631,0.956847491523,-0.264320253747,0.956847491523,-0.264320253747,-0.0260338460299,-0.100101973631
6900000000.0,-0.0268271982156,-0.101419115963,0.955644046266,-0.268046225733,0.955644046266,-0.268046225733,-0.0268271982156,-0.101419115963
7000000000.0,-0.0276306822451,-0.102729662171,0.954424427951,-0.271765313437,0.954424427951,-0.271765313437,-0.0276306822451,-0.102729662171
7100000000.0,-0.0284442375233,-0.104033531033,0.953188692288,-0.275477430321,0.953188692288,-0.275477430321,-0.0284442375233,-0.104033531033
7200000000.0,-0.0292678027623,-0.105330641949,0.951936895629,-0.27918249044,0.951936895629,-0.27918249044,-0.0292678027623,-0.105330641949
7300000000.0,-0.0301013159886,-0.106620914954,0.950669094963,-0.282880408445,0.950669094963,-0.282880408445,-0.0301013159886,-0.106620914954
7400000000.0,-0.0309447145506,-0.107904270725,0.949385347904,-0.286571099594,0.949385347904,-0.286571099594,-0.0309447145506,-0.107904270725
7500000000.0,-0.0317979351265,-0.10918063058,0.948085712687,-0.290254479754,0.948085712687,-0.290254479754,-0.0317979351265,-0.10918063058
7600000000.0,-0.0326609137319,-0.110449916494,0.946770248158,-0.29393046541,0.946770248158,-0.29393046541,-0.0326609137319,-0.110449916494
7700000000.0,-0.0335335857272,-0.1117120511,0.945439013763,-0.297598973671,0.945439013763,-0.297598973671,-0.0335335857272,-0.1117120511
7800000000.0,-0.0344158858261,-0.112966957697,0.944092069547,-0.301259922276,0.944092069547,-0.301259922276,-0.0344158858261,-0.112966957697
7900000000.0,-0.035307748103,-0.114214560255,0.942729476135,-0.304913229598,0.942729476135,-0.304913229598,-0.035307748103,-0.114214560255
8000000000.0,-0.0362091060015,-0.115454783423,0.941351294735,-0.308558814651,0.941351294735,-0.308558814651,-0.0362091060015,-0.115454783423
8100000000.0,-0.0371198923421,-0.116687552533,0.939957587119,-0.312196597096,0.939957587119,-0.312196597096,-0.0371198923421,-0.116687552533
8200000000.0,-0.0380400393307,-0.117912793606,0.938548415622,-0.315826497245,0.938548415622,-0.315826497245,-0.0380400393307,-0.117912793606
8300000000.0,-0.0389694785666,-0.119130433361,0.937123843131,-0.31944843607,0.937123843131,-0.31944843607,-0.0389694785666,-0.119130433361
8400000000.0,-0.0399081410512,-0.120340399215,0.935683933075,-0.323062335203,0.935683933075,-0.323062335203,-0.0399081410512,-0.120340399215
8500000000.0,-0.0408559571959,-0.121542619293,0.934228749417,-0.326668116944,0.934228749417,-0.326668116944,-0.0408559571959,-0.121542619293
8600000000.0,-0.0418128568309,-0.122737022431,0.932758356646,-0.330265704266,0.932758356646,-0.330265704266,-0.0418128568309,-0.122737022431
8700000000.0,-0.0427787692137,-0.123923538183,0.931272819768,-0.333855020818,0.931272819768,-0.333855020818,-0.0427787692137,-0.123923538183
8800000000.0,-0.0437536230376,-0.125102096822,0.929772204298,-0.337435990934,0.929772204298,-0.337435990934,-0.0437536230376,-0.125102096822
8900000000.0,-0.0447373464401,-0.12627262935,0.928256576248,-0.34100853963,0.928256576248,-0.34100853963,-0.0447373464401,-0.12627262935
9000000000.0,-0.0457298670121,-0.127435067502,0.926726002121,-0.344572592618,0.926726002121,-0.344572592618,-0.0457298670121,-0.127435067502
9100000000.0,-0.046731111806,-0.128589343745,0.925180548904,-0.348128076299,0.925180548904,-0.348128076299,-0.046731111806,-0.128589343745
9200000000.0,-0.0477410073449,-0.129735391291,0.923620284052,-0.351674917779,0.923620284052,-0.351674917779,-0.0477410073449,-0.129735391291
9300000000.0,-0.0487594796314,-0.130873144095,0.922045275487,-0.355213044864,0.922045275487,-0.355213044864,-0.0487594796314,-0.130873144095
9400000000.0,-0.0497864541561,-0.132002536861,0.920455591583,-0.358742386067,0.920455591583,-0.358742386067,-0.0497864541561,-0.132002536861
9500000000.0,-0.0508218559069,-0.133123505048,0.918851301161,-0.362262870613,0.918851301161,-0.362262870613,-0.0508218559069,-0.133123505048
9600000000.0,-0.0518656093778,-0.134235984872,0.917232473478,-0.36577442844,0.917232473478,-0.36577442844,-0.0518656093778,-0.134235984872
9700000000.0,-0.0529176385774,-0.135339913309,0.915599178218,-0.369276990206,0.915599178218,-0.369276990206,-0.0529176385774,-0.135339913309
9800000000.0,-0.0539778670388,-0.136435228104,0.913951485482,-0.372770487286,0.913951485482,-0.372770487286,-0.0539778670388,-0.136435228104
9900000000.0,-0.0550462178278,-0.137521867766,0.912289465782,-0.376254851784,0.912289465782,-0.376254851784,-0.0550462178278,-0.137521867766
10000000000.0,-0.0561226135523,-0.13859977158,0.910613190029,-0.379730016528,0.910613190029,-0.379730016528,-0.0561226135523,-0.13859977158
