freq (GHz),S11_real,S11_imag,S21_real,S21_imag,S12_real,S12_imag,S22_real,S22_imag
100000000.0,-0.0139059364812,-0.116572649345,0.986070826758,-0.116725651152,0.986070826758,-0.116725651152,-0.0139059364812,-0.116572649345
200000000.0,-0.0531950736688,-0.223793121638,0.946781495224,-0.224099240183,0.946781495224,-0.224099240183,-0.0531950736688,-0.223793121638
300000000.0,-0.112051571593,-0.314715226231,0.887924819064,-0.315174632945,0.887924819064,-0.315174632945,-0.112051571593,-0.314715226231
400000000.0,-0.183055936547,-0.385916032216,0.816920271926,-0.38652893856,0.816920271926,-0.38652893856,-0.183055936547,-0.385916032216
500000000.0,-0.259135672478,-0.437283647724,0.740840342092,-0.438050295601,0.740840342092,-0.438050295601,-0.259135672478,-0.437283647724
600000000.0,-0.334767877482,-0.470953103818,0.665207927456,-0.471873758581,0.665207927456,-0.471873758581,-0.334767877482,-0.470953103818
700000000.0,-0.406314490714,-0.490109166083,0.593661086437,-0.491184111023,0.593661086437,-0.491184111023,-0.406314490714,-0.490109166083
800000000.0,-0.471791393219,-0.498089024255,0.528183936374,-0.4993185561,0.528183936374,-0.4993185561,-0.471791393219,-0.498089024255
900000000.0,-0.530421695653,-0.497879884581,0.469553365445,-0.499264309761,0.469553365445,-0.499264309761,-0.530421695653,-0.497879884581
1000000000.0,-0.582197307477,-0.491924337754,0.417777463311,-0.493463969281,0.417777463311,-0.493463969281,-0.582197307477,-0.491924337754
1100000000.0,-0.627539822597,-0.482107734179,0.372434635367,-0.483802889048,0.372434635367,-0.483802889048,-0.627539822597,-0.482107734179
1200000000.0,-0.667071819267,-0.469829376541,0.332902302787,-0.471680373558,0.332902302787,-0.471680373558,-0.667071819267,-0.469829376541
1300000000.0,-0.701477339737,-0.456098709372,0.298496422843,-0.458105867369,0.298496422843,-0.458105867369,-0.701477339737,-0.456098709372
1400000000.0,-0.731424381388,-0.441627673802,0.268548997741,-0.443791310174,0.268548997741,-0.443791310174,-0.731424381388,-0.441627673802
1500000000.0,-0.757526671909,-0.426908245478,0.242446299434,-0.429228675004,0.242446299434,-0.429228675004,-0.757526671909,-0.426908245478
1600000000.0,-0.780328623492,-0.412273145717,0.219643915409,-0.414750679624,0.219643915409,-0.414750679624,-0.780328623492,-0.412273145717
1700000000.0,-0.800303060776,-0.397941486604,0.199669020743,-0.400576431837,0.199669020743,-0.400576431837,-0.800303060776,-0.397941486604
1800000000.0,-0.817855405714,-0.384052243782,0.182116193222,-0.386844902465,0.182116193222,-0.386844902465,-0.817855405714,-0.384052243782
1900000000.0,-0.833330673464,-0.370688418716,0.16664041745,-0.373639087759,0.16664041745,-0.373639087759,-0.833330673464,-0.370688418716
2000000000.0,-0.847021279664,-0.357894302646,0.152949277574,-0.361003273485,0.152949277574,-0.361003273485,-0.847021279664,-0.357894302646
2100000000.0,-0.85917463221,-0.345687727012,0.140795365492,-0.348955285462,0.140795365492,-0.348955285462,-0.85917463221,-0.345687727012
2200000000.0,-0.870000034745,-0.334068712765,0.129969377374,-0.337495138963,0.129969377374,-0.337495138963,-0.870000034745,-0.334068712765
2300000000.0,-0.879674732482,-0.323025551414,0.120294067828,-0.326611119841,0.120294067828,-0.326611119841,-0.879674732482,-0.323025551414
2400000000.0,-0.8883490888,-0.312539062114,0.111619073311,-0.316284041681,0.111619073311,-0.316284041681,-0.8883490888,-0.312539062114
2500000000.0,-0.896150956409,-0.302585556562,0.103816540953,-0.306490210747,0.103816540953,-0.306490210747,-0.896150956409,-0.302585556562
2600000000.0,-0.90318933713,-0.293138889788,0.0967774687821,-0.297203476812,0.0967774687821,-0.297203476812,-0.90318933713,-0.293138889788
2700000000.0,-0.90955743082,-0.284171865016,0.0904086567986,-0.288396638057,0.0904086567986,-0.288396638057,-0.90955743082,-0.284171865016
2800000000.0,-0.915335168777,-0.275657182655,0.0846301735657,-0.280042390084,0.0846301735657,-0.280042390084,-0.915335168777,-0.275657182655
2900000000.0,-0.920591316814,-0.267568068123,0.0793732531381,-0.272113953758,0.0793732531381,-0.272113953758,-0.920591316814,-0.267568068123
3000000000.0,-0.925385221469,-0.259878674032,0.0745785488499,-0.264585477407,0.0745785488499,-0.264585477407,-0.925385221469,-0.259878674032
3100000000.0,-0.929768261438,-0.252564324527,0.070194681878,-0.257432281171,0.070194681878,-0.257432281171,-0.929768261438,-0.252564324527
3200000000.0,-0.933785055993,-0.245601649904,0.0661770328318,-0.250630991624,0.0661770328318,-0.250630991624,-0.933785055993,-0.245601649904
3300000000.0,-0.937474473137,-0.238968645703,0.0624867335864,-0.244159600868,0.0624867335864,-0.244159600868,-0.937474473137,-0.238968645703
3400000000.0,-0.940870472718,-0.232644680516,0.0590898241797,-0.23799747434,0.0590898241797,-0.23799747434,-0.940870472718,-0.232644680516
3500000000.0,-0.944002813307,-0.226610469711,0.0559565459238,-0.232125324541,0.0559565459238,-0.232125324541,-0.944002813307,-0.226610469711
3600000000.0,-0.946897646503,-0.220848027228,0.0530607471084,-0.226525162814,0.0530607471084,-0.226525162814,-0.946897646503,-0.220848027228
3700000000.0,-0.949578017969,-0.215340603984,0.050379381957,-0.221180237757,0.050379381957,-0.221180237757,-0.949578017969,-0.215340603984
3800000000.0,-0.952064291069,-0.210072618867,0.0478920869948,-0.216074966202,0.0478920869948,-0.216074966202,-0.952064291069,-0.210072618867
3900000000.0,-0.954374506078,-0.205029586459,0.0455808218356,-0.211194860933,0.0455808218356,-0.211194860933,-0.954374506078,-0.205029586459
4000000000.0,-0.956524685648,-0.200198044291,0.0434295637169,-0.206526457931,0.0434295637169,-0.206526457931,-0.956524685648,-0.200198044291
4100000000.0,-0.958529095311,-0.195565481527,0.0414240469976,-0.202057245057,0.0414240469976,-0.202057245057,-0.958529095311,-0.195565481527
4200000000.0,-0.960400466259,-0.191120270288,0.039551540374,-0.197775593356,0.039551540374,-0.197775593356,-0.960400466259,-0.191120270288
4300000000.0,-0.962150186405,-0.186851600344,0.0378006558225,-0.19367069175,0.0378006558225,-0.19367069175,-0.962150186405,-0.186851600344
4400000000.0,-0.963788464677,-0.182749417614,0.0361611843042,-0.189732485524,0.0361611843042,-0.189732485524,-0.963788464677,-0.182749417614
4500000000.0,-0.965324472677,-0.178804366625,0.0346239541044,-0.185951618776,0.0346239541044,-0.185951618776,-0.965324472677,-0.178804366625
4600000000.0,-0.966766467147,-0.175007736976,0.0331807083688,-0.182319380878,0.0331807083688,-0.182319380878,-0.966766467147,-0.175007736976
4700000000.0,-0.968121896106,-0.171351413714,0.0318239989649,-0.178827656837,0.0318239989649,-0.178827656837,-0.968121896106,-0.171351413714
4800000000.0,-0.969397491068,-0.167827831481,0.0305470942628,-0.175468881435,0.0305470942628,-0.175468881435,-0.969397491068,-0.167827831481
4900000000.0,-0.970599347364,-0.164429932227,0.0293438988147,-0.172235996937,0.0293438988147,-0.172235996937,-0.970599347364,-0.164429932227
5000000000.0,-0.971732994266,-0.16115112629,0.0282088832327,-0.169122414163,0.0282088832327,-0.169122414163,-0.971732994266,-0.16115112629
5100000000.0,-0.972803456343,-0.15798525661,0.0271370228285,-0.166121976691,0.0271370228285,-0.166121976691,-0.972803456343,-0.15798525661
5200000000.0,-0.973815307275,-0.154926565853,0.0261237437997,-0.163228927977,0.0261237437997,-0.163228927977,-0.973815307275,-0.154926565853
5300000000.0,-0.974772717156,-0.151969666221,0.0251648759312,-0.160437881156,0.0251648759312,-0.160437881156,-0.974772717156,-0.151969666221
5400000000.0,-0.97567949415,-0.149109511743,0.024256610935,-0.157743791329,0.024256610935,-0.157743791329,-0.97567949415,-0.149109511743
5500000000.0,-0.976539121262,-0.146341372838,0.0233954656804,-0.155141930119,0.0233954656804,-0.155141930119,-0.976539121262,-0.146341372838
5600000000.0,-0.977354788857,-0.143660812969,0.0225782496742,-0.152627862318,0.0225782496742,-0.152627862318,-0.977354788857,-0.143660812969
5700000000.0,-0.978129423476,-0.141063667206,0.021802036245,-0.150197424443,0.021802036245,-0.150197424443,-0.978129423476,-0.141063667206
5800000000.0,-0.978865713421,-0.138546022537,0.0210641369602,-0.147846705048,0.0210641369602,-0.147846705048,-0.978865713421,-0.138546022537
5900000000.0,-0.979566131507,-0.136104199784,0.0203620788702,-0.145572026626,0.0203620788702,-0.145572026626,-0.979566131507,-0.136104199784
6000000000.0,-0.980232955339,-0.133734736971,0.0196935842334,-0.143369928979,0.0196935842334,-0.143369928979,-0.980232955339,-0.133734736971
6100000000.0,-0.980868285412,-0.131434374037,0.0190565524165,-0.141237153924,0.0190565524165,-0.141237153924,-0.980868285412,-0.131434374037
6200000000.0,-0.981474061293,-0.12920003876,0.0184490437124,-0.139170631213,0.0184490437124,-0.139170631213,-0.981474061293,-0.12920003876
6300000000.0,-0.982052076114,-0.127028833803,0.0178692648465,-0.137167465574,0.0178692648465,-0.137167465574,-0.982052076114,-0.127028833803
6400000000.0,-0.982603989572,-0.124918024771,0.0173155559743,-0.135224924767,0.0173155559743,-0.135224924767,-0.982603989572,-0.124918024771
6500000000.0,-0.983131339616,-0.122865029208,0.0167863790003,-0.133340428574,0.0167863790003,-0.133340428574,-0.983131339616,-0.122865029208
6600000000.0,-0.983635552955,-0.120867406438,0.0162803070654,-0.131511538637,0.0162803070654,-0.131511538637,-0.983635552955,-0.120867406438
6700000000.0,-0.98411795453,-0.118922848187,0.015796015074,-0.129735949079,0.015796015074,-0.129735949079,-0.98411795453,-0.118922848187
6800000000.0,-0.984579776069,-0.117029169916,0.0153322711434,-0.128011477837,0.0153322711434,-0.128011477837,-0.984579776069,-0.117029169916
6900000000.0,-0.98502216381,-0.115184302816,0.0148879288775,-0.126336058643,0.0148879288775,-0.126336058643,-0.98502216381,-0.115184302816
7000000000.0,-0.985446185496,-0.113386286387,0.0144619203725,-0.124707733614,0.0144619203725,-0.124707733614,-0.985446185496,-0.113386286387
7100000000.0,-0.985852836711,-0.111633261577,0.0140532498798,-0.123124646376,0.0140532498798,-0.123124646376,-0.985852836711,-0.111633261577
7200000000.0,-0.986243046634,-0.109923464417,0.0136609880543,-0.12158503571,0.0136609880543,-0.12158503571,-0.986243046634,-0.109923464417
7300000000.0,-0.986617683263,-0.108255220124,0.0132842667295,-0.120087229639,0.0132842667295,-0.120087229639,-0.986617683263,-0.108255220124
7400000000.0,-0.986977558167,-0.106626937624,0.0129222741629,-0.11862963996,0.0129222741629,-0.11862963996,-0.986977558167,-0.106626937624
7500000000.0,-0.987323430819,-0.105037104466,0.0125742507067,-0.11721075715,0.0125742507067,-0.11721075715,-0.987323430819,-0.105037104466
7600000000.0,-0.987656012543,-0.103484282097,0.0122394848589,-0.11582914564,0.0122394848589,-0.11582914564,-0.987656012543,-0.103484282097
7700000000.0,-0.98797597012,-0.101967101464,0.0119173096581,-0.114483439419,0.0119173096581,-0.114483439419,-0.98797597012,-0.101967101464
7800000000.0,-0.98828392908,-0.100484258922,0.0116070993889,-0.113172337937,0.0116070993889,-0.113172337937,-0.98828392908,-0.100484258922
7900000000.0,-0.988580476722,-0.099034512429,0.0113082665664,-0.111894602297,0.0113082665664,-0.111894602297,-0.988580476722,-0.099034512429
8000000000.0,-0.988866164871,-0.0976166779841,0.0110202591746,-0.110649051699,0.0110202591746,-0.110649051699,-0.988866164871,-0.0976166779841
8100000000.0,-0.989141512413,-0.0962296263223,0.0107425581338,-0.109434560124,0.0107425581338,-0.109434560124,-0.989141512413,-0.0962296263223
8200000000.0,-0.989407007621,-0.0948722798185,0.010474674976,-0.108250053245,0.010474674976,-0.108250053245,-0.989407007621,-0.0948722798185
8300000000.0,-0.989663110286,-0.0935436096005,0.0102161497087,-0.107094505533,0.0102161497087,-0.107094505533,-0.989663110286,-0.0935436096005
8400000000.0,-0.989910253686,-0.0922426328492,0.0099665488503,-0.105966937562,0.0099665488503,-0.105966937562,-0.989910253686,-0.0922426328492
8500000000.0,-0.990148846396,-0.0909684102746,0.00972546362148,-0.104866413479,0.00972546362148,-0.104866413479,-0.990148846396,-0.0909684102746
8600000000.0,-0.990379273948,-0.089720043753,0.00949250827822,-0.103792038641,0.00949250827822,-0.103792038641,-0.990379273948,-0.089720043753
8700000000.0,-0.990601900376,-0.0884966741147,0.00926731857463,-0.102742957407,0.00926731857463,-0.102742957407,-0.990601900376,-0.0884966741147
8800000000.0,-0.99081706963,-0.0872974790714,0.00904955034348,-0.101718351059,0.00904955034348,-0.101718351059,-0.99081706963,-0.0872974790714
8900000000.0,-0.99102510689,-0.0861216712723,0.00883887818493,-0.100717435859,0.00883887818493,-0.100717435859,-0.99102510689,-0.0861216712723
9000000000.0,-0.991226319777,-0.0849684964806,0.00863499425368,-0.0997394612267,0.00863499425368,-0.0997394612267,-0.991226319777,-0.0849684964806
9100000000.0,-0.991420999478,-0.0838372318619,0.00843760713629,-0.0987837080255,0.00843760713629,-0.0987837080255,-0.991420999478,-0.0838372318619
9200000000.0,-0.991609421782,-0.0827271843761,0.00824644081142,-0.0978494869548,0.00824644081142,-0.0978494869548,-0.991609421782,-0.0827271843761
9300000000.0,-0.99179184805,-0.0816376892663,0.00806123368567,-0.0969361370387,0.00806123368567,-0.0969361370387,-0.99179184805,-0.0816376892663
9400000000.0,-0.991968526101,-0.0805681086374,0.00788173769906,-0.0960430242036,0.00788173769906,-0.0960430242036,-0.991968526101,-0.0805681086374
9500000000.0,-0.992139691053,-0.0795178301195,0.00770771749439,-0.0951695399414,0.00770771749439,-0.0951695399414,-0.992139691053,-0.0795178301195
9600000000.0,-0.992305566084,-0.078486265608,0.0075389496454,-0.0943151000501,0.0075389496454,-0.0943151000501,-0.992305566084,-0.078486265608
9700000000.0,-0.992466363159,-0.0774728500784,0.00737522193889,-0.0934791434474,0.00737522193889,-0.0934791434474,-0.992466363159,-0.0774728500784
9800000000.0,-0.992622283691,-0.0764770404683,0.00721633270669,-0.0926611310529,0.00721633270669,-0.0926611310529,-0.992622283691,-0.0764770404683
9900000000.0,-0.99277351917,-0.0754983146232,0.00706209020357,-0.0918605447342,0.00706209020357,-0.0918605447342,-0.99277351917,-0.0754983146232
10000000000.0,-0.992920251734,-0.0745361703023,0.00691231202727,-0.0910768863117,0.00691231202727,-0.0910768863117,-0.992920251734,-0.0745361703023
