freq (GHz),S11_real,S11_imag,S21_real,S21_imag,S12_real,S12_imag,S22_real,S22_imag
100000000.0,0.00245935838561,0.000147800846106,0.997539594919,-0.000197068997107,0.997539594919,-0.000197068997107,0.00245935838561,0.000147800846106
200000000.0,0.00247558495598,0.000295590741893,0.997523319223,-0.000394127257504,0.997523319223,-0.000394127257504,0.00247558495598,0.000295590741893
300000000.0,0.0024874709279,0.000443374354179,0.997511381695,-0.000591179560767,0.997511381695,-0.000591179560767,0.0024874709279,0.000443374354179
400000000.0,0.00249716024815,0.000591153356983,0.997501638389,-0.000788227668383,0.997501638389,-0.000788227668383,0.00249716024815,0.000591153356983
500000000.0,0.00250548097331,0.000738928720847,0.997493261248,-0.000985272625825,0.997493261248,-0.000985272625825,0.00250548097331,0.000738928720847
600000000.0,0.00251285658819,0.000886701102181,0.997485826787,-0.00118231515628,0.997485826787,-0.00118231515628,0.00251285658819,0.000886701102181
700000000.0,0.00251953795209,0.0010344709839,0.997479084146,-0.00137935580337,0.997479084146,-0.00137935580337,0.00251953795209,0.0010344709839
800000000.0,0.00252568804643,0.00118223874084,0.997472870344,-0.00157639499812,0.997472870344,-0.00157639499812,0.00252568804643,0.00118223874084
900000000.0,0.00253141974961,0.0013300046751,0.997467072503,-0.00177343309511,0.997467072503,-0.00177343309511,0.00253141974961,0.0013300046751
1000000000.0,0.00253681500465,0.00147776903712,0.997461608678,-0.00197047039414,0.997461608678,-0.00197047039414,0.00253681500465,0.00147776903712
1100000000.0,0.00254193548554,0.00162553203906,0.997456417196,-0.00216750715402,0.997456417196,-0.00216750715402,0.00254193548554,0.00162553203906
1200000000.0,0.00254682895995,0.00177329386372,0.997451450289,-0.00236454360212,0.997451450289,-0.00236454360212,0.00254682895995,0.00177329386372
1300000000.0,0.00255153329605,0.00192105467104,0.997446670088,-0.00256157994065,0.997446670088,-0.00256157994065,0.00255153329605,0.00192105467104
1400000000.0,0.00255607909943,0.00206881460252,0.997442045988,-0.00275861635171,0.997442045988,-0.00275861635171,0.00255607909943,0.00206881460252
1500000000.0,0.00256049151176,0.00221657378469,0.997437552847,-0.0029556530008,0.997437552847,-0.0029556530008,0.00256049151176,0.00221657378469
1600000000.0,0.00256479147503,0.00236433233165,0.997433169722,-0.00315269003958,0.997433169722,-0.00315269003958,0.00256479147503,0.00236433233165
1700000000.0,0.00256899664401,0.00251209034726,0.99742887896,-0.00334972760791,0.99742887896,-0.00334972760791,0.00256899664401,0.00251209034726
1800000000.0,0.00257312205898,0.00265984792653,0.997424665518,-0.00354676583577,0.997424665518,-0.00354676583577,0.00257312205898,0.00265984792653
1900000000.0,0.00257718065179,0.00280760515705,0.997420516465,-0.00374380484444,0.997420516465,-0.00374380484444,0.00257718065179,0.00280760515705
2000000000.0,0.0025811836327,0.00295536211999,0.997416420591,-0.00394084474771,0.997416420591,-0.00394084474771,0.0025811836327,0.00295536211999
2100000000.0,0.00258514079104,0.00310311889096,0.997412368105,-0.00413788565279,0.997412368105,-0.00413788565279,0.00258514079104,0.00310311889096
2200000000.0,0.00258906073153,0.00325087554069,0.997408350404,-0.00433492766118,0.997408350404,-0.00433492766118,0.00258906073153,0.00325087554069
2300000000.0,0.00259295106267,0.00339863213574,0.997404359878,-0.00453197086914,0.997404359878,-0.00453197086914,0.00259295106267,0.00339863213574
2400000000.0,0.00259681854844,0.00354638873885,0.997400389762,-0.00472901536845,0.997400389762,-0.00472901536845,0.00259681854844,0.00354638873885
2500000000.0,0.00260066923152,0.00369414540953,0.997396434015,-0.0049260612467,0.997396434015,-0.0049260612467,0.00260066923152,0.00369414540953
2600000000.0,0.00260450853463,0.00384190220432,0.997392487213,-0.00512310858787,0.997392487213,-0.00512310858787,0.00260450853463,0.00384190220432
2700000000.0,0.0026083413442,0.00398965917714,0.997388544469,-0.00532015747261,0.997388544469,-0.00532015747261,0.0026083413442,0.00398965917714
2800000000.0,0.00261217208016,0.00413741637966,0.997384601363,-0.00551720797845,0.997384601363,-0.00551720797845,0.00261217208016,0.00413741637966
2900000000.0,0.00261600475463,0.00428517386136,0.997380653883,-0.00571426018033,0.997380653883,-0.00571426018033,0.00261600475463,0.00428517386136
3000000000.0,0.00261984302132,0.00443293166996,0.997376698374,-0.00591131415054,0.997376698374,-0.00591131415054,0.00261984302132,0.00443293166996
3100000000.0,0.00262369021781,0.00458068985137,0.9973727315,-0.00610836995921,0.9973727315,-0.00610836995921,0.00262369021781,0.00458068985137
3200000000.0,0.00262754940136,0.00472844845013,0.997368750201,-0.00630542767427,0.997368750201,-0.00630542767427,0.00262754940136,0.00472844845013
3300000000.0,0.00263142337995,0.00487620750929,0.997364751671,-0.00650248736182,0.997364751671,-0.00650248736182,0.00263142337995,0.00487620750929
3400000000.0,0.00263531473891,0.00502396707076,0.997360733323,-0.00669954908609,0.997360733323,-0.00669954908609,0.00263531473891,0.00502396707076
3500000000.0,0.0026392258642,0.00517172717524,0.997356692772,-0.00689661290976,0.997356692772,-0.00689661290976,0.0026392258642,0.00517172717524
3600000000.0,0.00264315896244,0.00531948786254,0.99735262781,-0.00709367889393,0.99735262781,-0.00709367889393,0.00264315896244,0.00531948786254
3700000000.0,0.00264711607868,0.00546724917146,0.997348536391,-0.00729074709835,0.997348536391,-0.00729074709835,0.00264711607868,0.00546724917146
3800000000.0,0.00265109911185,0.00561501114,0.997344416617,-0.00748781758145,0.997344416617,-0.00748781758145,0.00265109911185,0.00561501114
3900000000.0,0.00265510982841,0.00576277380543,0.997340266721,-0.00768489040045,0.997340266721,-0.00768489040045,0.00265510982841,0.00576277380543
4000000000.0,0.00265914987447,0.00591053720435,0.997336085057,-0.00788196561146,0.997336085057,-0.00788196561146,0.00265914987447,0.00591053720435
4100000000.0,0.00266322078644,0.00605830137271,0.997331870087,-0.00807904326955,0.997331870087,-0.00807904326955,0.00266322078644,0.00605830137271
4200000000.0,0.00266732400062,0.00620606634595,0.997327620376,-0.00827612342879,0.997327620376,-0.00827612342879,0.00266732400062,0.00620606634595
4300000000.0,0.00267146086164,0.00635383215901,0.997323334577,-0.00847320614236,0.997323334577,-0.00847320614236,0.00267146086164,0.00635383215901
4400000000.0,0.00267563263013,0.00650159884631,0.997319011431,-0.00867029146264,0.997319011431,-0.00867029146264,0.00267563263013,0.00650159884631
4500000000.0,0.00267984048952,0.00664936644196,0.997314649753,-0.00886737944115,0.997314649753,-0.00886737944115,0.00267984048952,0.00664936644196
4600000000.0,0.00268408555216,0.00679713497965,0.997310248432,-0.00906447012869,0.997310248432,-0.00906447012869,0.00268408555216,0.00679713497965
4700000000.0,0.00268836886487,0.00694490449276,0.997305806418,-0.0092615635754,0.997305806418,-0.0092615635754,0.00268836886487,0.00694490449276
4800000000.0,0.00269269141394,0.00709267501442,0.997301322727,-0.00945865983069,0.997301322727,-0.00945865983069,0.00269269141394,0.00709267501442
4900000000.0,0.00269705412968,0.00724044657739,0.997296796428,-0.00965575894348,0.997296796428,-0.00965575894348,0.00269705412968,0.00724044657739
5000000000.0,0.00270145789045,0.00738821921436,0.997292226641,-0.009852860962,0.997292226641,-0.009852860962,0.00270145789045,0.00738821921436
5100000000.0,0.00270590352651,0.00753599295768,0.997287612536,-0.010049965934,0.997287612536,-0.010049965934,0.00270590352651,0.00753599295768
5200000000.0,0.00271039182332,0.00768376783961,0.997282953327,-0.0102470739068,0.997282953327,-0.0102470739068,0.00271039182332,0.00768376783961
5300000000.0,0.00271492352468,0.00783154389224,0.997278248271,-0.0104441849271,0.997278248271,-0.0104441849271,0.00271492352468,0.00783154389224
5400000000.0,0.00271949933562,0.00797932114753,0.997273496661,-0.0106412990413,0.997273496661,-0.0106412990413,0.00271949933562,0.00797932114753
5500000000.0,0.00272411992489,0.00812709963733,0.997268697829,-0.0108384162952,0.997268697829,-0.0108384162952,0.00272411992489,0.00812709963733
5600000000.0,0.00272878592744,0.00827487939339,0.99726385114,-0.0110355367345,0.99726385114,-0.0110355367345,0.00272878592744,0.00827487939339
5700000000.0,0.00273349794658,0.00842266044741,0.997258955989,-0.0112326604042,0.997258955989,-0.0112326604042,0.00273349794658,0.00842266044741
5800000000.0,0.00273825655599,0.00857044283104,0.997254011803,-0.0114297873492,0.997254011803,-0.0114297873492,0.00273825655599,0.00857044283104
5900000000.0,0.00274306230155,0.00871822657586,0.997249018036,-0.011626917614,0.997249018036,-0.011626917614,0.00274306230155,0.00871822657586
6000000000.0,0.00274791570311,0.00886601171346,0.997243974167,-0.0118240512428,0.997243974167,-0.0118240512428,0.00274791570311,0.00886601171346
6100000000.0,0.00275281725604,0.0090137982754,0.997238879701,-0.0120211882794,0.997238879701,-0.0120211882794,0.00275281725604,0.0090137982754
6200000000.0,0.00275776743268,0.00916158629326,0.997233734164,-0.0122183287675,0.997233734164,-0.0122183287675,0.00275776743268,0.00916158629326
6300000000.0,0.00276276668374,0.00930937579864,0.997228537106,-0.0124154727505,0.997228537106,-0.0124154727505,0.00276276668374,0.00930937579864
6400000000.0,0.00276781543952,0.00945716682311,0.997223288097,-0.0126126202715,0.997223288097,-0.0126126202715,0.00276781543952,0.00945716682311
6500000000.0,0.00277291411108,0.00960495939833,0.997217986724,-0.0128097713735,0.997217986724,-0.0128097713735,0.00277291411108,0.00960495939833
6600000000.0,0.00277806309137,0.00975275355599,0.997212632595,-0.0130069260991,0.997212632595,-0.0130069260991,0.00277806309137,0.00975275355599
6700000000.0,0.00278326275618,0.00990054932782,0.997207225333,-0.0132040844909,0.997207225333,-0.0132040844909,0.00278326275618,0.00990054932782
6800000000.0,0.00278851346512,0.0100483467457,0.997201764579,-0.0134012465913,0.997201764579,-0.0134012465913,0.00278851346512,0.0100483467457
6900000000.0,0.00279381556249,0.0101961458413,0.997196249987,-0.0135984124423,0.997196249987,-0.0135984124423,0.00279381556249,0.0101961458413
7000000000.0,0.00279916937808,0.0103439466468,0.997190681227,-0.0137955820861,0.997190681227,-0.0137955820861,0.00279916937808,0.0103439466468
7100000000.0,0.00280457522799,0.0104917491942,0.997185057984,-0.0139927555644,0.997185057984,-0.0139927555644,0.00280457522799,0.0104917491942
7200000000.0,0.00281003341529,0.0106395535155,0.997179379954,-0.014189932919,0.997179379954,-0.014189932919,0.00281003341529,0.0106395535155
7300000000.0,0.0028155442307,0.0107873596431,0.997173646845,-0.0143871141914,0.997173646845,-0.0143871141914,0.0028155442307,0.0107873596431
7400000000.0,0.00282110795326,0.0109351676092,0.997167858378,-0.0145842994232,0.997167858378,-0.0145842994232,0.00282110795326,0.0109351676092
7500000000.0,0.00282672485086,0.0110829774462,0.997162014285,-0.0147814886557,0.997162014285,-0.0147814886557,0.00282672485086,0.0110829774462
7600000000.0,0.00283239518086,0.0112307891868,0.997156114308,-0.0149786819302,0.997156114308,-0.0149786819302,0.00283239518086,0.0112307891868
7700000000.0,0.00283811919054,0.0113786028637,0.9971501582,-0.0151758792878,0.9971501582,-0.0151758792878,0.00283811919054,0.0113786028637
7800000000.0,0.00284389711764,0.0115264185095,0.997144145722,-0.0153730807696,0.997144145722,-0.0153730807696,0.00284389711764,0.0115264185095
7900000000.0,0.00284972919081,0.0116742361572,0.997138076646,-0.0155702864166,0.997138076646,-0.0155702864166,0.00284972919081,0.0116742361572
8000000000.0,0.00285561563003,0.0118220558399,0.99713195075,-0.0157674962697,0.99713195075,-0.0157674962697,0.00285561563003,0.0118220558399
8100000000.0,0.00286155664701,0.0119698775908,0.997125767824,-0.0159647103697,0.997125767824,-0.0159647103697,0.00286155664701,0.0119698775908
8200000000.0,0.00286755244561,0.0121177014432,0.997119527662,-0.0161619287575,0.997119527662,-0.0161619287575,0.00286755244561,0.0121177014432
8300000000.0,0.00287360322218,0.0122655274305,0.997113230069,-0.0163591514737,0.997113230069,-0.0163591514737,0.00287360322218,0.0122655274305
8400000000.0,0.00287970916591,0.0124133555865,0.997106874854,-0.0165563785591,0.997106874854,-0.0165563785591,0.00287970916591,0.0124133555865
8500000000.0,0.00288587045913,0.0125611859447,0.997100461834,-0.0167536100542,0.997100461834,-0.0167536100542,0.00288587045913,0.0125611859447
8600000000.0,0.00289208727766,0.0127090185393,0.997093990835,-0.0169508459997,0.997093990835,-0.0169508459997,0.00289208727766,0.0127090185393
8700000000.0,0.00289835979107,0.0128568534042,0.997087461684,-0.0171480864362,0.997087461684,-0.0171480864362,0.00289835979107,0.0128568534042
8800000000.0,0.00290468816296,0.0130046905736,0.99708087422,-0.017345331404,0.99708087422,-0.017345331404,0.00290468816296,0.0130046905736
8900000000.0,0.00291107255124,0.013152530082,0.997074228283,-0.0175425809439,0.997074228283,-0.0175425809439,0.00291107255124,0.013152530082
9000000000.0,0.00291751310832,0.0133003719638,0.99706752372,-0.0177398350961,0.99706752372,-0.0177398350961,0.00291751310832,0.0133003719638
9100000000.0,0.00292400998142,0.0134482162538,0.997060760385,-0.0179370939013,0.997060760385,-0.0179370939013,0.00292400998142,0.0134482162538
9200000000.0,0.00293056331275,0.0135960629869,0.997053938134,-0.0181343573998,0.997053938134,-0.0181343573998,0.00293056331275,0.0135960629869
9300000000.0,0.0029371732397,0.0137439121981,0.997047056829,-0.018331625632,0.997047056829,-0.018331625632,0.0029371732397,0.0137439121981
9400000000.0,0.0029438398951,0.0138917639225,0.997040116338,-0.0185288986384,0.997040116338,-0.0185288986384,0.0029438398951,0.0138917639225
9500000000.0,0.00295056340735,0.0140396181956,0.997033116532,-0.0187261764595,0.997033116532,-0.0187261764595,0.00295056340735,0.0140396181956
9600000000.0,0.00295734390065,0.0141874750529,0.997026057286,-0.0189234591356,0.997026057286,-0.0189234591356,0.00295734390065,0.0141874750529
9700000000.0,0.00296418149513,0.0143353345301,0.997018938479,-0.0191207467071,0.997018938479,-0.0191207467071,0.00296418149513,0.0143353345301
9800000000.0,0.00297107630704,0.014483196663,0.997011759996,-0.0193180392146,0.997011759996,-0.0193180392146,0.00297107630704,0.014483196663
9900000000.0,0.00297802844891,0.0146310614878,0.997004521722,-0.0195153366984,0.997004521722,-0.0195153366984,0.00297802844891,0.0146310614878
10000000000.0,0.00298503802968,0.0147789290407,0.996997223549,-0.0197126391989,0.996997223549,-0.0197126391989,0.00298503802968,0.0147789290407
