freq (GHz),S11_real,S11_imag,S21_real,S21_imag,S12_real,S12_imag,S22_real,S22_imag
100000000.0,2.46766166661e-05,-0.0050927915887,0.999911106528,-0.00520573797543,0.999911106528,-0.00520573797543,2.46766166658e-05,-0.0050927915887
200000000.0,-5.95585615594e-05,-0.0101846587466,0.999826079864,-0.0104105533107,0.999826079864,-0.0104105533107,-5.95585615591e-05,-0.0101846587466
300000000.0,-0.000196880393368,-0.0152747839378,0.999688150158,-0.0156136295836,0.999688150158,-0.0156136295836,-0.000196880393368,-0.0152747839378
400000000.0,-0.000387195574567,-0.02036235097,0.999497312917,-0.0208141514516,0.999497312917,-0.0208141514516,-0.000387195574567,-0.02036235097
500000000.0,-0.000630424227269,-0.025446545196,0.999253610524,-0.0260113049977,0.999253610524,-0.0260113049977,-0.000630424227269,-0.025446545196
600000000.0,-0.000926479032615,-0.0305265538801,0.998957111256,-0.0312042781415,0.998957111256,-0.0312042781415,-0.000926479032615,-0.0305265538801
700000000.0,-0.00127525998894,-0.0356015665826,0.998607903916,-0.0363922610446,0.998607903916,-0.0363922610446,-0.00127525998894,-0.0356015665826
800000000.0,-0.00167665255491,-0.0406707755657,0.998206095821,-0.0415744465293,0.998206095821,-0.0415744465293,-0.00167665255491,-0.0406707755657
900000000.0,-0.00213052687931,-0.0457333761978,0.997751811858,-0.0467500304911,0.997751811858,-0.0467500304911,-0.00213052687931,-0.0457333761978
1000000000.0,-0.0026367374679,-0.0507885673621,0.99724519394,-0.0519182123134,0.99724519394,-0.0519182123134,-0.0026367374679,-0.0507885673621
1100000000.0,-0.00319512305623,-0.0558355518612,0.996686400659,-0.0570781952752,0.996686400659,-0.0570781952752,-0.00319512305623,-0.0558355518612
1200000000.0,-0.0038055065922,-0.0608735368214,0.996075607012,-0.0622291869596,0.996075607012,-0.0622291869596,-0.0038055065922,-0.0608735368214
1300000000.0,-0.0044676952844,-0.0659017340923,0.995413004174,-0.0673703996551,0.995413004174,-0.0673703996551,-0.0044676952844,-0.0659017340923
1400000000.0,-0.00518148069327,-0.0709193606423,0.994698799287,-0.0725010507532,0.994698799287,-0.0725010507532,-0.00518148069327,-0.0709193606423
1500000000.0,-0.00594663885289,-0.075925638949,0.99393321526,-0.0776203631408,0.99393321526,-0.0776203631408,-0.00594663885289,-0.075925638949
1600000000.0,-0.00676293041646,-0.0809197973849,0.993116490567,-0.0827275655865,0.993116490567,-0.0827275655865,-0.00676293041646,-0.0809197973849
1700000000.0,-0.00763010082084,-0.085901070595,0.99224887904,-0.0878218931199,0.99224887904,-0.0878218931199,-0.00763010082084,-0.085901070595
1800000000.0,-0.00854788046774,-0.0908686998709,0.991330649659,-0.0929025874066,0.991330649659,-0.0929025874066,-0.00854788046774,-0.0908686998709
1900000000.0,-0.00951598491917,-0.0958219335159,0.990362086336,-0.0979688971134,0.990362086336,-0.0979688971134,-0.00951598491917,-0.0958219335159
2000000000.0,-0.0105341151062,-0.100760027203,0.989343487687,-0.103020078268,0.989343487687,-0.103020078268,-0.0105341151062,-0.100760027203
2100000000.0,-0.01160195755,-0.105682244327,0.988275166798,-0.108055394611,0.988275166798,-0.108055394611,-0.01160195755,-0.105682244327
2200000000.0,-0.0127191845935,-0.110587856346,0.987157450983,-0.113074117938,0.987157450983,-0.113074117938,-0.0127191845935,-0.110587856346
2300000000.0,-0.0138854546448,-0.115476143116,0.985990681535,-0.118075528435,0.985990681535,-0.118075528435,-0.0138854546448,-0.115476143116
2400000000.0,-0.0151004124294,-0.120346393216,0.984775213462,-0.123058915005,0.984775213462,-0.123058915005,-0.0151004124294,-0.120346393216
2500000000.0,-0.016363689253,-0.125197904267,0.983511415224,-0.128023575584,0.983511415224,-0.128023575584,-0.016363689253,-0.125197904267
2600000000.0,-0.0176749032723,-0.130029983239,0.982199668456,-0.13296881745,0.982199668456,-0.13296881745,-0.0176749032723,-0.130029983239
2700000000.0,-0.0190336597752,-0.134841946745,0.980840367681,-0.137893957521,0.980840367681,-0.137893957521,-0.0190336597752,-0.134841946745
2800000000.0,-0.0204395514684,-0.139633121334,0.979433920026,-0.142798322644,0.979433920026,-0.142798322644,-0.0204395514684,-0.139633121334
2900000000.0,-0.0218921587733,-0.144402843769,0.977980744918,-0.147681249873,0.977980744918,-0.147681249873,-0.0218921587733,-0.144402843769
3000000000.0,-0.0233910501281,-0.149150461293,0.976481273781,-0.152542086736,0.976481273781,-0.152542086736,-0.0233910501281,-0.149150461293
3100000000.0,-0.0249357822977,-0.153875331886,0.974935949727,-0.157380191496,0.974935949727,-0.157380191496,-0.0249357822977,-0.153875331886
3200000000.0,-0.0265259006895,-0.158576824515,0.973345227235,-0.162194933395,0.973345227235,-0.162194933395,-0.0265259006895,-0.158576824515
3300000000.0,-0.0281609396746,-0.163254319369,0.971709571831,-0.166985692894,0.971709571831,-0.166985692894,-0.0281609396746,-0.163254319369
3400000000.0,-0.0298404229155,-0.167907208085,0.970029459759,-0.171751861895,0.970029459759,-0.171751861895,-0.0298404229155,-0.167907208085
3500000000.0,-0.0315638636977,-0.172534893961,0.968305377645,-0.17649284396,0.968305377645,-0.17649284396,-0.0315638636977,-0.172534893961
3600000000.0,-0.033330765267,-0.177136792161,0.966537822165,-0.181208054511,0.966537822165,-0.181208054511,-0.033330765267,-0.177136792161
3700000000.0,-0.0351406211701,-0.181712329909,0.964727299699,-0.185896921025,0.964727299699,-0.185896921025,-0.0351406211701,-0.181712329909
3800000000.0,-0.0369929155993,-0.186260946666,0.962874325987,-0.190558883213,0.962874325987,-0.190558883213,-0.0369929155993,-0.186260946666
3900000000.0,-0.0388871237411,-0.190782094303,0.960979425779,-0.195193393191,0.960979425779,-0.195193393191,-0.0388871237411,-0.190782094303
4000000000.0,-0.0408227121265,-0.19527523726,0.959043132486,-0.199799915642,0.959043132486,-0.199799915642,-0.0408227121265,-0.19527523726
4100000000.0,-0.0427991389851,-0.19973985269,0.957065987824,-0.204377927957,0.957065987824,-0.204377927957,-0.0427991389851,-0.19973985269
4200000000.0,-0.0448158546002,-0.204175430598,0.955048541461,-0.208926920375,0.955048541461,-0.208926920375,-0.0448158546002,-0.204175430598
4300000000.0,-0.0468723016666,-0.208581473963,0.952991350654,-0.213446396108,0.952991350654,-0.213446396108,-0.0468723016666,-0.208581473963
4400000000.0,-0.048967915649,-0.212957498854,0.950894979894,-0.217935871451,0.950894979894,-0.217935871451,-0.048967915649,-0.212957498854
4500000000.0,-0.0511021251412,-0.21730303453,0.948760000546,-0.222394875888,0.948760000546,-0.222394875888,-0.0511021251412,-0.21730303453
4600000000.0,-0.0532743522268,-0.221617623531,0.946586990488,-0.226822952182,0.946586990488,-0.226822952182,-0.0532743522268,-0.221617623531
4700000000.0,-0.0554840128385,-0.22590082176,0.944376533752,-0.231219656452,0.944376533752,-0.231219656452,-0.0554840128385,-0.22590082176
4800000000.0,-0.0577305171185,-0.230152198547,0.942129220159,-0.235584558245,0.942129220159,-0.235584558245,-0.0577305171185,-0.230152198547
4900000000.0,-0.0600132697777,-0.234371336712,0.939845644969,-0.239917240591,0.939845644969,-0.239917240591,-0.0600132697777,-0.234371336712
5000000000.0,-0.0623316704536,-0.238557832608,0.937526408512,-0.244217300054,0.937526408512,-0.244217300054,-0.0623316704536,-0.238557832608
5100000000.0,-0.0646851140673,-0.242711296159,0.935172115838,-0.248484346764,0.935172115838,-0.248484346764,-0.0646851140673,-0.242711296159
5200000000.0,-0.0670729911787,-0.246831350887,0.93278337636,-0.252718004447,0.93278337636,-0.252718004447,-0.0670729911787,-0.246831350887
5300000000.0,-0.0694946883399,-0.250917633924,0.9303608035,-0.256917910436,0.9303608035,-0.256917910436,-0.0694946883399,-0.250917633924
5400000000.0,-0.0719495884453,-0.25496979602,0.92790501434,-0.261083715678,0.92790501434,-0.261083715678,-0.0719495884453,-0.25496979602
5500000000.0,-0.0744370710803,-0.258987501539,0.925416629269,-0.265215084734,0.925416629269,-0.265215084734,-0.0744370710803,-0.258987501539
5600000000.0,-0.076956512866,-0.262970428438,0.922896271645,-0.269311695754,0.922896271645,-0.269311695754,-0.076956512866,-0.262970428438
5700000000.0,-0.0795072878014,-0.266918268252,0.920344567446,-0.273373240463,0.920344567446,-0.273373240463,-0.0795072878014,-0.266918268252
5800000000.0,-0.0820887676011,-0.270830726053,0.917762144939,-0.277399424122,0.917762144939,-0.277399424122,-0.0820887676011,-0.270830726053
5900000000.0,-0.0847003220301,-0.274707520409,0.915149634337,-0.281389965484,0.915149634337,-0.281389965484,-0.0847003220301,-0.274707520409
6000000000.0,-0.0873413192337,-0.278548383331,0.912507667478,-0.285344596745,0.912507667478,-0.285344596745,-0.0873413192337,-0.278548383331
6100000000.0,-0.090011126064,-0.282353060217,0.90983687749,-0.289263063482,0.90983687749,-0.289263063482,-0.090011126064,-0.282353060217
6200000000.0,-0.0927091084003,-0.286121309775,0.907137898477,-0.293145124584,0.907137898477,-0.293145124584,-0.0927091084003,-0.286121309775
6300000000.0,-0.0954346314663,-0.289852903949,0.904411365198,-0.296990552171,0.904411365198,-0.296990552171,-0.0954346314663,-0.289852903949
6400000000.0,-0.0981870601411,-0.293547627835,0.901657912758,-0.300799131513,0.901657912758,-0.300799131513,-0.0981870601411,-0.293547627835
6500000000.0,-0.100965759265,-0.297205279584,0.8988781763,-0.304570660934,0.8988781763,-0.304570660934,-0.100965759265,-0.297205279584
6600000000.0,-0.103770093942,-0.300825670302,0.896072790707,-0.308304951711,0.896072790707,-0.308304951711,-0.103770093942,-0.300825670302
6700000000.0,-0.106599429832,-0.304408623941,0.893242390303,-0.312001827963,0.893242390303,-0.312001827963,-0.106599429832,-0.304408623941
6800000000.0,-0.10945313344,-0.307953977185,0.890387608567,-0.31566112654,0.890387608567,-0.31566112654,-0.10945313344,-0.307953977185
6900000000.0,-0.112330572405,-0.311461579324,0.887509077849,-0.319282696899,0.887509077849,-0.319282696899,-0.112330572405,-0.311461579324
7000000000.0,-0.115231115769,-0.31493129213,0.884607429093,-0.322866400972,0.884607429093,-0.322866400972,-0.115231115769,-0.31493129213
7100000000.0,-0.118154134252,-0.318362989717,0.881683291562,-0.326412113034,0.881683291562,-0.326412113034,-0.118154134252,-0.318362989717
7200000000.0,-0.121099000519,-0.321756558404,0.878737292583,-0.329919719562,0.878737292583,-0.329919719562,-0.121099000519,-0.321756558404
7300000000.0,-0.124065089432,-0.325111896563,0.875770057279,-0.333389119087,0.875770057279,-0.333389119087,-0.124065089432,-0.325111896563
7400000000.0,-0.127051778305,-0.328428914473,0.872782208323,-0.336820222041,0.872782208323,-0.336820222041,-0.127051778305,-0.328428914473
7500000000.0,-0.130058447151,-0.331707534158,0.869774365693,-0.340212950602,0.869774365693,-0.340212950602,-0.130058447151,-0.331707534158
7600000000.0,-0.133084478913,-0.334947689226,0.86674714643,-0.343567238528,0.86674714643,-0.343567238528,-0.133084478913,-0.334947689226
7700000000.0,-0.136129259702,-0.338149324701,0.863701164414,-0.346883030994,0.863701164414,-0.346883030994,-0.136129259702,-0.338149324701
7800000000.0,-0.139192179018,-0.341312396855,0.860637030133,-0.35016028442,0.860637030133,-0.35016028442,-0.139192179018,-0.341312396855
7900000000.0,-0.142272629968,-0.344436873027,0.857555350469,-0.353398966292,0.857555350469,-0.353398966292,-0.142272629968,-0.344436873027
8000000000.0,-0.145370009474,-0.347522731451,0.854456728488,-0.356599054987,0.854456728488,-0.356599054987,-0.145370009474,-0.347522731451
8100000000.0,-0.148483718482,-0.350569961065,0.851341763234,-0.359760539588,0.851341763234,-0.359760539588,-0.148483718482,-0.350569961065
8200000000.0,-0.151613162153,-0.353578561332,0.848211049536,-0.362883419699,0.848211049536,-0.362883419699,-0.151613162153,-0.353578561332
8300000000.0,-0.154757750051,-0.356548542048,0.845065177817,-0.365967705254,0.845065177817,-0.365967705254,-0.154757750051,-0.356548542048
8400000000.0,-0.157916896333,-0.359479923148,0.841904733911,-0.369013416329,0.841904733911,-0.369013416329,-0.157916896333,-0.359479923148
8500000000.0,-0.161090019917,-0.362372734516,0.838730298891,-0.372020582944,0.838730298891,-0.372020582944,-0.161090019917,-0.362372734516
8600000000.0,-0.164276544652,-0.365227015785,0.835542448896,-0.374989244867,0.835542448896,-0.374989244867,-0.164276544652,-0.365227015785
8700000000.0,-0.167475899481,-0.368042816138,0.832341754973,-0.377919451415,0.832341754973,-0.377919451415,-0.167475899481,-0.368042816138
8800000000.0,-0.170687518592,-0.370820194109,0.829128782923,-0.380811261256,0.829128782923,-0.380811261256,-0.170687518592,-0.370820194109
8900000000.0,-0.173910841571,-0.373559217382,0.825904093153,-0.383664742204,0.825904093153,-0.383664742204,-0.173910841571,-0.373559217382
9000000000.0,-0.177145313535,-0.376259962584,0.822668240533,-0.386479971016,0.822668240533,-0.386479971016,-0.177145313535,-0.376259962584
9100000000.0,-0.180390385271,-0.378922515082,0.819421774267,-0.389257033186,0.819421774267,-0.389257033186,-0.180390385271,-0.378922515082
9200000000.0,-0.183645513363,-0.381546968778,0.816165237763,-0.391996022745,0.816165237763,-0.391996022745,-0.183645513363,-0.381546968778
9300000000.0,-0.186910160309,-0.384133425901,0.812899168511,-0.394697042047,0.812899168511,-0.394697042047,-0.186910160309,-0.384133425901
9400000000.0,-0.190183794636,-0.386681996803,0.809624097975,-0.397360201568,0.809624097975,-0.397360201568,-0.190183794636,-0.386681996803
9500000000.0,-0.193465891011,-0.389192799747,0.80634055148,-0.399985619695,0.80634055148,-0.399985619695,-0.193465891011,-0.389192799747
9600000000.0,-0.196755930333,-0.391665960707,0.803049048114,-0.402573422522,0.803049048114,-0.402573422522,-0.196755930333,-0.391665960707
9700000000.0,-0.200053399838,-0.394101613151,0.799750100635,-0.40512374364,0.799750100635,-0.40512374364,-0.200053399838,-0.394101613151
9800000000.0,-0.203357793178,-0.396499897845,0.796444215379,-0.407636723931,0.796444215379,-0.407636723931,-0.203357793178,-0.396499897845
9900000000.0,-0.206668610509,-0.398860962637,0.793131892182,-0.410112511365,0.793131892182,-0.410112511365,-0.206668610509,-0.398860962637
10000000000.0,-0.209985358564,-0.401184962256,0.789813624302,-0.412551260785,0.789813624302,-0.412551260785,-0.209985358564,-0.401184962256
