freq (GHz),S11_real,S11_imag,S21_real,S21_imag,S12_real,S12_imag,S22_real,S22_imag
100000000.0,0.0151237402785,0.00200970545686,0.984868144944,-0.00494887900215,0.984868144944,-0.00494887900215,0.0151237402785,0.00200970545686
200000000.0,0.0152517341529,0.00401779765206,0.984724352598,-0.00989613335205,0.984724352598,-0.00989613335205,0.0152517341529,0.00401779765206
300000000.0,0.0153735908797,0.00602461712264,0.984578012845,-0.0148421025309,0.984578012845,-0.0148421025309,0.0153735908797,0.00602461712264
400000000.0,0.0155022586836,0.00803013730777,0.984416176566,-0.0197867574677,0.984416176566,-0.0197867574677,0.0155022586836,0.00803013730777
500000000.0,0.0156427186762,0.0100342466847,0.984233861641,-0.0247299833995,0.984233861641,-0.0247299833995,0.0156427186762,0.0100342466847
600000000.0,0.0157975039727,0.0120367963396,0.984028533813,-0.0296716276947,0.984028533813,-0.0296716276947,0.0157975039727,0.0120367963396
700000000.0,0.0159681030324,0.0140376170418,0.983798703332,-0.0346115170562,0.983798703332,-0.0346115170562,0.0159681030324,0.0140376170418
800000000.0,0.0161554719233,0.0160365271663,0.983543412689,-0.0395494655196,0.983543412689,-0.0395494655196,0.0161554719233,0.0160365271663
900000000.0,0.016360262442,0.0180333369571,0.983262008491,-0.0444852787663,0.983262008491,-0.0444852787663,0.016360262442,0.0180333369571
1000000000.0,0.0165829377576,0.02002785106,0.982954025816,-0.0494187566909,0.982954025816,-0.0494187566909,0.0165829377576,0.02002785106
1100000000.0,0.0168238367041,0.0220198701421,0.98261912392,-0.0543496950453,0.98261912392,-0.0543496950453,0.0168238367041,0.0220198701421
1200000000.0,0.0170832120962,0.0240091919847,0.982257047922,-0.0592778865513,0.982257047922,-0.0592778865513,0.0170832120962,0.0240091919847
1300000000.0,0.0173612548384,0.025995612257,0.981867604692,-0.0642031216877,0.981867604692,-0.0642031216877,0.0173612548384,0.025995612257
1400000000.0,0.0176581097759,0.0279789250829,0.981450647002,-0.0691251892697,0.981450647002,-0.0691251892697,0.0176581097759,0.0279789250829
1500000000.0,0.0179738864987,0.0299589234707,0.981006062722,-0.074043876887,0.981006062722,-0.074043876887,0.0179738864987,0.0299589234707
1600000000.0,0.0183086669322,0.0319353996481,0.980533767229,-0.0789589712461,0.980533767229,-0.0789589712461,0.0183086669322,0.0319353996481
1700000000.0,0.0186625108107,0.0339081453284,0.980033697934,-0.0838702584436,0.980033697934,-0.0838702584436,0.0186625108107,0.0339081453284
1800000000.0,0.0190354597134,0.0358769519294,0.979505810244,-0.0887775241888,0.979505810244,-0.0887775241888,0.0190354597134,0.0358769519294
1900000000.0,0.0194275400992,0.0378416107538,0.978950074534,-0.093680553989,0.978950074534,-0.093680553989,0.0194275400992,0.0378416107538
2000000000.0,0.0198387656283,0.0398019131432,0.978366473817,-0.0985791333069,0.978366473817,-0.0985791333069,0.0198387656283,0.0398019131432
2100000000.0,0.0202691389664,0.04175765061,0.977755001948,-0.103473047695,0.977755001948,-0.103473047695,0.0202691389664,0.04175765061
2200000000.0,0.0207186532061,0.0437086149527,0.977115662197,-0.108362082915,0.977115662197,-0.108362082915,0.0207186532061,0.0437086149527
2300000000.0,0.021187293001,0.0456545983582,0.976448466118,-0.113246025038,0.976448466118,-0.113246025038,0.021187293001,0.0456545983582
2400000000.0,0.0216750354814,0.0475953934928,0.975753432633,-0.118124660543,0.975753432633,-0.118124660543,0.0216750354814,0.0475953934928
2500000000.0,0.0221818510014,0.0495307935853,0.975030587288,-0.122997776396,0.975030587288,-0.122997776396,0.0221818510014,0.0495307935853
2600000000.0,0.0227077037545,0.0514605925021,0.97427996163,-0.127865160131,0.97427996163,-0.127865160131,0.0227077037545,0.0514605925021
2700000000.0,0.0232525522857,0.0533845848172,0.973501592706,-0.132726599915,0.973501592706,-0.132726599915,0.0232525522857,0.0533845848172
2800000000.0,0.0238163499215,0.0553025658765,0.972695522624,-0.13758188462,0.972695522624,-0.13758188462,0.0238163499215,0.0553025658765
2900000000.0,0.0243990451334,0.0572143318583,0.971861798194,-0.142430803879,0.971861798194,-0.142430803879,0.0243990451334,0.0572143318583
3000000000.0,0.0250005818489,0.0591196798302,0.971000470617,-0.147273148145,0.971000470617,-0.147273148145,0.0250005818489,0.0591196798302
3100000000.0,0.0256208997175,0.0610184078023,0.970111595219,-0.152108708746,0.970111595219,-0.152108708746,0.0256208997175,0.0610184078023
3200000000.0,0.0262599343428,0.0629103147784,0.969195231219,-0.156937277933,0.969195231219,-0.156937277933,0.0262599343428,0.0629103147784
3300000000.0,0.0269176174836,0.0647952008046,0.968251441528,-0.161758648931,0.968251441528,-0.161758648931,0.0269176174836,0.0647952008046
3400000000.0,0.0275938772312,0.0666728670153,0.967280292573,-0.166572615985,0.967280292573,-0.166572615985,0.0275938772312,0.0666728670153
3500000000.0,0.028288638167,0.0685431156778,0.966281854138,-0.171378974406,0.966281854138,-0.171378974406,0.028288638167,0.0685431156778
3600000000.0,0.0290018215013,0.0704057502355,0.965256199225,-0.176177520607,0.965256199225,-0.176177520607,0.0290018215013,0.0704057502355
3700000000.0,0.0297333451995,0.0722605753481,0.964203403933,-0.180968052155,0.964203403933,-0.180968052155,0.0297333451995,0.0722605753481
3800000000.0,0.0304831240948,0.0741073969324,0.963123547339,-0.185750367799,0.963123547339,-0.185750367799,0.0304831240948,0.0741073969324
3900000000.0,0.0312510699912,0.0759460222001,0.962016711399,-0.190524267516,0.962016711399,-0.190524267516,0.0312510699912,0.0759460222001
4000000000.0,0.0320370917578,0.0777762596953,0.960882980852,-0.195289552545,0.960882980852,-0.195289552545,0.0320370917578,0.0777762596953
4100000000.0,0.0328410954146,0.0795979193303,0.959722443137,-0.200046025422,0.959722443137,-0.200046025422,0.0328410954146,0.0795979193303
4200000000.0,0.0336629842132,0.081410812421,0.95853518831,-0.204793490015,0.95853518831,-0.204793490015,0.0336629842132,0.081410812421
4300000000.0,0.0345026587108,0.0832147517206,0.957321308972,-0.209531751559,0.957321308972,-0.209531751559,0.0345026587108,0.0832147517206
4400000000.0,0.0353600168399,0.0850095514526,0.956080900196,-0.214260616687,0.956080900196,-0.214260616687,0.0353600168399,0.0850095514526
4500000000.0,0.0362349539739,0.0867950273431,0.954814059467,-0.218979893461,0.954814059467,-0.218979893461,0.0362349539739,0.0867950273431
4600000000.0,0.0371273629887,0.0885709966519,0.953520886618,-0.223689391403,0.953520886618,-0.223689391403,0.0371273629887,0.0885709966519
4700000000.0,0.0380371343218,0.0903372782025,0.952201483769,-0.228388921527,0.952201483769,-0.228388921527,0.0380371343218,0.0903372782025
4800000000.0,0.0389641560278,0.0920936924124,0.950855955274,-0.233078296363,0.950855955274,-0.233078296363,0.0389641560278,0.0920936924124
4900000000.0,0.0399083138326,0.093840061321,0.949484407667,-0.23775732999,0.949484407667,-0.23775732999,0.0399083138326,0.093840061321
5000000000.0,0.0408694911845,0.0955762086178,0.948086949612,-0.242425838059,0.948086949612,-0.242425838059,0.0408694911845,0.0955762086178
5100000000.0,0.0418475693041,0.0973019596698,0.946663691849,-0.247083637824,0.946663691849,-0.247083637824,0.0418475693041,0.0973019596698
5200000000.0,0.0428424272325,0.0990171415474,0.945214747152,-0.251730548162,0.945214747152,-0.251730548162,0.0428424272325,0.0990171415474
5300000000.0,0.043853941878,0.10072158305,0.943740230277,-0.256366389603,0.943740230277,-0.256366389603,0.043853941878,0.10072158305
5400000000.0,0.0448819880617,0.102415114733,0.942240257919,-0.260990984349,0.942240257919,-0.260990984349,0.0448819880617,0.102415114733
5500000000.0,0.0459264385616,0.104097568927,0.940714948671,-0.265604156304,0.940714948671,-0.265604156304,0.0459264385616,0.104097568927
5600000000.0,0.0469871641566,0.105768779768,0.939164422973,-0.270205731088,0.939164422973,-0.270205731088,0.0469871641566,0.105768779768
5700000000.0,0.0480640336689,0.107428583213,0.937588803077,-0.274795536068,0.937588803077,-0.274795536068,0.0480640336689,0.107428583213
5800000000.0,0.0491569140056,0.10907681707,0.935988213,-0.279373400371,0.935988213,-0.279373400371,0.0491569140056,0.10907681707
5900000000.0,0.0502656702006,0.11071332101,0.934362778488,-0.283939154912,0.934362778488,-0.283939154912,0.0502656702006,0.11071332101
6000000000.0,0.0513901654546,0.112337936597,0.93271262697,-0.288492632408,0.93271262697,-0.288492632408,0.0513901654546,0.112337936597
6100000000.0,0.0525302611756,0.113950507303,0.931037887522,-0.293033667397,0.931037887522,-0.293033667397,0.0525302611756,0.113950507303
6200000000.0,0.0536858170186,0.115550878526,0.929338690825,-0.297562096262,0.929338690825,-0.297562096262,0.0536858170186,0.115550878526
6300000000.0,0.0548566909245,0.117138897613,0.927615169129,-0.302077757244,0.927615169129,-0.302077757244,0.0548566909245,0.117138897613
6400000000.0,0.0560427391592,0.118714413875,0.925867456209,-0.306580490458,0.925867456209,-0.306580490458,0.0560427391592,0.118714413875
6500000000.0,0.0572438163524,0.120277278605,0.924095687334,-0.311070137913,0.924095687334,-0.311070137913,0.0572438163524,0.120277278605
6600000000.0,0.0584597755351,0.121827345096,0.922299999221,-0.315546543528,0.922299999221,-0.315546543528,0.0584597755351,0.121827345096
6700000000.0,0.0596904681782,0.123364468655,0.920480530005,-0.320009553141,0.920480530005,-0.320009553141,0.0596904681782,0.123364468655
6800000000.0,0.0609357442301,0.124888506619,0.918637419193,-0.324459014531,0.918637419193,-0.324459014531,0.0609357442301,0.124888506619
6900000000.0,0.0621954521537,0.12639931837,0.916770807636,-0.328894777426,0.916770807636,-0.328894777426,0.0621954521537,0.12639931837
7000000000.0,0.063469438964,0.127896765351,0.914880837484,-0.333316693518,0.914880837484,-0.333316693518,0.063469438964,0.127896765351
7100000000.0,0.0647575502653,0.129380711075,0.912967652153,-0.337724616477,0.912967652153,-0.337724616477,0.0647575502653,0.129380711075
7200000000.0,0.0660596302874,0.130851021143,0.911031396287,-0.34211840196,0.911031396287,-0.34211840196,0.0660596302874,0.130851021143
7300000000.0,0.0673755219229,0.13230756325,0.909072215724,-0.346497907623,0.909072215724,-0.346497907623,0.0673755219229,0.13230756325
7400000000.0,0.0687050667631,0.133750207204,0.907090257455,-0.350862993132,0.907090257455,-0.350862993132,0.0687050667631,0.133750207204
7500000000.0,0.070048105135,0.135178824931,0.905085669594,-0.355213520172,0.905085669594,-0.355213520172,0.070048105135,0.135178824931
7600000000.0,0.0714044761365,0.136593290487,0.903058601336,-0.359549352457,0.903058601336,-0.359549352457,0.0714044761365,0.136593290487
7700000000.0,0.0727740176733,0.137993480069,0.901009202924,-0.363870355737,0.901009202924,-0.363870355737,0.0727740176733,0.137993480069
7800000000.0,0.074156566494,0.139379272023,0.898937625615,-0.36817639781,0.898937625615,-0.36817639781,0.074156566494,0.139379272023
7900000000.0,0.075551958226,0.140750546852,0.89684402164,-0.372467348522,0.89684402164,-0.372467348522,0.075551958226,0.140750546852
8000000000.0,0.0769600274113,0.142107187225,0.894728544174,-0.37674307978,0.894728544174,-0.37674307978,0.0769600274113,0.142107187225
8100000000.0,0.0783806075411,0.143449077983,0.892591347296,-0.381003465556,0.892591347296,-0.381003465556,0.0783806075411,0.143449077983
8200000000.0,0.0798135310918,0.144776106146,0.890432585957,-0.385248381893,0.890432585957,-0.385248381893,0.0798135310918,0.144776106146
8300000000.0,0.0812586295593,0.146088160922,0.888252415945,-0.389477706907,0.888252415945,-0.389477706907,0.0812586295593,0.146088160922
8400000000.0,0.0827157334943,0.147385133706,0.886050993848,-0.393691320795,0.886050993848,-0.393691320795,0.0827157334943,0.147385133706
8500000000.0,0.0841846725365,0.148666918092,0.883828477022,-0.397889105836,0.883828477022,-0.397889105836,0.0841846725365,0.148666918092
8600000000.0,0.0856652754497,0.149933409872,0.881585023557,-0.402070946397,0.881585023557,-0.402070946397,0.0856652754497,0.149933409872
8700000000.0,0.0871573701557,0.151184507042,0.879320792239,-0.406236728931,0.879320792239,-0.406236728931,0.0871573701557,0.151184507042
8800000000.0,0.0886607837682,0.152420109807,0.87703594252,-0.410386341984,0.87703594252,-0.410386341984,0.0886607837682,0.152420109807
8900000000.0,0.0901753426275,0.153640120579,0.874730634483,-0.414519676192,0.874730634483,-0.414519676192,0.0901753426275,0.153640120579
9000000000.0,0.0917008723334,0.154844443983,0.872405028808,-0.418636624284,0.872405028808,-0.418636624284,0.0917008723334,0.154844443983
9100000000.0,0.0932371977793,0.156032986857,0.870059286739,-0.422737081082,0.870059286739,-0.422737081082,0.0932371977793,0.156032986857
9200000000.0,0.0947841431854,0.157205658253,0.86769357005,-0.4268209435,0.86769357005,-0.4268209435,0.0947841431854,0.157205658253
9300000000.0,0.0963415321317,0.158362369437,0.865308041014,-0.430888110544,0.865308041014,-0.430888110544,0.0963415321317,0.158362369437
9400000000.0,0.0979091875912,0.159503033892,0.862902862368,-0.43493848331,0.862902862368,-0.43493848331,0.0979091875912,0.159503033892
9500000000.0,0.0994869319624,0.160627567311,0.860478197281,-0.438971964981,0.860478197281,-0.438971964981,0.0994869319624,0.160627567311
9600000000.0,0.101074587102,0.161735887602,0.858034209324,-0.442988460827,0.858034209324,-0.442988460827,0.101074587102,0.161735887602
9700000000.0,0.102671974356,0.162827914886,0.855571062433,-0.4469878782,0.855571062433,-0.4469878782,0.102671974356,0.162827914886
9800000000.0,0.104278914594,0.163903571488,0.853088920884,-0.45097012653,0.853088920884,-0.45097012653,0.104278914594,0.163903571488
9900000000.0,0.105895228239,0.164962781943,0.850587949254,-0.454935117324,0.850587949254,-0.454935117324,0.105895228239,0.164962781943
10000000000.0,0.1075207353,0.166005472989,0.848068312396,-0.458882764159,0.848068312396,-0.458882764159,0.1075207353,0.166005472989
