freq (GHz),S11_real,S11_imag,S21_real,S21_imag,S12_real,S12_imag,S22_real,S22_imag
100000000.0,-0.0025644362964,-0.0503218768495,0.997356735865,-0.0506015180268,0.997356735865,-0.0506015180268,-0.0025644362964,-0.0503218768495
200000000.0,-0.0101939513416,-0.0998642210568,0.989726564793,-0.100423563786,0.989726564793,-0.100423563786,-0.0101939513416,-0.0998642210568
300000000.0,-0.022619867875,-0.147898428283,0.977300048902,-0.148737565754,0.977300048902,-0.148737565754,-0.022619867875,-0.147898428283
400000000.0,-0.0394795718924,-0.193769908561,0.960439734333,-0.194888959722,0.960439734333,-0.194888959722,-0.0394795718924,-0.193769908561
500000000.0,-0.0603036218121,-0.23692489973,0.939615036572,-0.238324005622,0.939615036572,-0.238324005622,-0.0603036218121,-0.23692489973
600000000.0,-0.0845466332002,-0.276928000438,0.915371326723,-0.278607321707,0.915371326723,-0.278607321707,-0.0845466332002,-0.276928000438
700000000.0,-0.11161993336,-0.313469720761,0.888297269565,-0.315429435779,0.888297269565,-0.315429435779,-0.11161993336,-0.313469720761
800000000.0,-0.140922722186,-0.346364734974,0.858993660022,-0.348605038321,0.858993660022,-0.348605038321,-0.140922722186,-0.346364734974
900000000.0,-0.171869213519,-0.375542516153,0.828046280617,-0.378063617348,0.828046280617,-0.378063617348,-0.171869213519,-0.375542516153
1000000000.0,-0.203910186669,-0.401032572707,0.796004349352,-0.40383469511,0.796004349352,-0.40383469511,-0.203910186669,-0.401032572707
1100000000.0,-0.236548334111,-0.422946609518,0.763365171671,-0.426029989369,0.763365171671,-0.426029989369,-0.236548334111,-0.422946609518
1200000000.0,-0.2693475878,-0.441459700004,0.730564813963,-0.444824585561,0.730564813963,-0.444824585561,-0.2693475878,-0.441459700004
1300000000.0,-0.301937160987,-0.456792115721,0.697974061604,-0.460438766487,0.697974061604,-0.460438766487,-0.301937160987,-0.456792115721
1400000000.0,-0.334011344534,-0.469192947125,0.665898622577,-0.473121633141,0.665898622577,-0.473121633141,-0.334011344534,-0.469192947125
1500000000.0,-0.365326184466,-0.478926161592,0.634582449853,-0.483137162791,0.634582449853,-0.483137162791,-0.365326184466,-0.478926161592
1600000000.0,-0.395694101922,-0.486259341874,0.604213121409,-0.490752947492,0.604213121409,-0.490752947492,-0.395694101922,-0.486259341874
1700000000.0,-0.424977360546,-0.491455053152,0.574928372806,-0.496231561173,0.574928372806,-0.496231561173,-0.424977360546,-0.491455053152
1800000000.0,-0.453081092468,-0.494764597466,0.546823071192,-0.49982431412,0.546823071192,-0.49982431412,-0.453081092468,-0.494764597466
1900000000.0,-0.479946399451,-0.496423813912,0.519956114134,-0.501767053202,0.519956114134,-0.501767053202,-0.479946399451,-0.496423813912
2000000000.0,-0.505543873089,-0.496650549043,0.494356909415,-0.502277632307,0.494356909415,-0.502277632307,-0.505543873089,-0.496650549043
2100000000.0,-0.529867737164,-0.49564343259,0.470031232663,-0.501554688093,0.470031232663,-0.501554688093,-0.529867737164,-0.49564343259
2200000000.0,-0.552930708609,-0.493581630431,0.446966366385,-0.499777392986,0.446966366385,-0.499777392986,-0.552930708609,-0.493581630431
2300000000.0,-0.574759597938,-0.49062529583,0.425135499529,-0.497105906446,0.425135499529,-0.497105906446,-0.574759597938,-0.49062529583
2400000000.0,-0.595391620333,-0.48691649199,0.404501416398,-0.493682297538,0.404501416398,-0.493682297538,-0.595391620333,-0.48691649199
2500000000.0,-0.614871358994,-0.482580408117,0.385019533288,-0.489631761024,0.385019533288,-0.489631761024,-0.614871358994,-0.482580408117
2600000000.0,-0.633248307457,-0.477726734507,0.366640356173,-0.485063992472,0.366640356173,-0.485063992472,-0.633248307457,-0.477726734507
2700000000.0,-0.650574912774,-0.472451098444,0.349311437525,-0.480074624168,0.349311437525,-0.480074624168,-0.650574912774,-0.472451098444
2800000000.0,-0.66690504313,-0.466836491887,0.332978908688,-0.474746652826,0.332978908688,-0.474746652826,-0.66690504313,-0.466836491887
2900000000.0,-0.682292809054,-0.460954644739,0.31758865867,-0.469151812872,0.31758865867,-0.469151812872,-0.682292809054,-0.460954644739
3000000000.0,-0.696791674881,-0.454867314727,0.303087222682,-0.463351866341,0.303087222682,-0.463351866341,-0.696791674881,-0.454867314727
3100000000.0,-0.710453805356,-0.448627477625,0.289422435526,-0.457399793115,0.289422435526,-0.457399793115,-0.710453805356,-0.448627477625
3200000000.0,-0.723329600458,-0.442280410658,0.276543896778,-0.451340874346,0.276543896778,-0.451340874346,-0.723329600458,-0.442280410658
3300000000.0,-0.735467379076,-0.435864668189,0.264403287104,-0.445213668147,0.264403287104,-0.445213668147,-0.735467379076,-0.435864668189
3400000000.0,-0.746913179046,-0.429412952967,0.252954568227,-0.439050880866,0.252954568227,-0.439050880866,-0.746913179046,-0.429412952967
3500000000.0,-0.757710646982,-0.422952888839,0.242154093095,-0.432880139796,0.242154093095,-0.432880139796,-0.757710646982,-0.422952888839
3600000000.0,-0.767900996416,-0.416507702268,0.231960647737,-0.426724674719,0.231960647737,-0.426724674719,-0.767900996416,-0.416507702268
3700000000.0,-0.777523017062,-0.41009682074,0.222335442006,-0.420603916313,0.222335442006,-0.420603916313,-0.777523017062,-0.41009682074
3800000000.0,-0.786613121512,-0.403736396232,0.213242062872,-0.414534019636,0.213242062872,-0.414534019636,-0.786613121512,-0.403736396232
3900000000.0,-0.795205418642,-0.397439761755,0.204646401024,-0.408528320678,0.204646401024,-0.408528320678,-0.795205418642,-0.397439761755
4000000000.0,-0.803331805301,-0.391217828513,0.196516559179,-0.402597733528,0.196516559179,-0.402597733528,-0.803331805301,-0.391217828513
4100000000.0,-0.811022069815,-0.385079430691,0.188822748576,-0.396751095174,0.188822748576,-0.396751095174,-0.811022069815,-0.385079430691
4200000000.0,-0.818304002322,-0.379031624255,0.181537178641,-0.390995464307,0.181537178641,-0.390995464307,-0.818304002322,-0.379031624255
4300000000.0,-0.8252035082,-0.373079945519,0.17463394356,-0.3853363799,0.17463394356,-0.3853363799,-0.8252035082,-0.373079945519
4400000000.0,-0.831744721781,-0.367228634618,0.168088908564,-0.379778084687,0.168088908564,-0.379778084687,-0.831744721781,-0.367228634618
4500000000.0,-0.83795011831,-0.361480828447,0.161879597969,-0.374323718107,0.161879597969,-0.374323718107,-0.83795011831,-0.361480828447
4600000000.0,-0.843840622697,-0.355838727083,0.155985086428,-0.368975482739,0.155985086428,-0.368975482739,-0.843840622697,-0.355838727083
4700000000.0,-0.849435714048,-0.350303737211,0.150385894391,-0.363734787727,0.150385894391,-0.363734787727,-0.849435714048,-0.350303737211
4800000000.0,-0.854753525338,-0.344876595641,0.145063888443,-0.358602372306,0.145063888443,-0.358602372306,-0.854753525338,-0.344876595641
4900000000.0,-0.859810937821,-0.339557475595,0.140002186883,-0.353578412098,0.140002186883,-0.353578412098,-0.859810937821,-0.339557475595
5000000000.0,-0.864623670009,-0.334346078106,0.135185070754,-0.348662610512,0.135185070754,-0.348662610512,-0.864623670009,-0.334346078106
5100000000.0,-0.869206361163,-0.329241710557,0.130597900347,-0.34385427729,0.130597900347,-0.34385427729,-0.869206361163,-0.329241710557
5200000000.0,-0.873572649374,-0.324243354107,0.126227037119,-0.339152395936,0.126227037119,-0.339152395936,-0.873572649374,-0.324243354107
5300000000.0,-0.877735244391,-0.319349721533,0.122059770868,-0.334555681565,0.122059770868,-0.334555681565,-0.877735244391,-0.319349721533
5400000000.0,-0.881705995379,-0.314559306805,0.118084251974,-0.330062630482,0.118084251974,-0.330062630482,-0.881705995379,-0.314559306805
5500000000.0,-0.885495953857,-0.309870427523,0.114289428459,-0.325671562621,0.114289428459,-0.325671562621,-0.885495953857,-0.309870427523
5600000000.0,-0.889115432061,-0.305281261199,0.110664987626,-0.321380657834,0.110664987626,-0.321380657834,-0.889115432061,-0.305281261199
5700000000.0,-0.892574057014,-0.30078987624,0.107201301987,-0.317187986872,0.107201301987,-0.317187986872,-0.892574057014,-0.30078987624
5800000000.0,-0.895880820558,-0.29639425835,0.103889379233,-0.313091537798,0.103889379233,-0.313091537798,-0.895880820558,-0.29639425835
5900000000.0,-0.899044125623,-0.292092332993,0.100720815964,-0.309089238449,0.100720815964,-0.309089238449,-0.899044125623,-0.292092332993
6000000000.0,-0.902071828988,-0.287881984462,0.0976877549257,-0.305178975505,0.0976877549257,-0.305178975505,-0.902071828988,-0.287881984462
6100000000.0,-0.904971280793,-0.283761072014,0.0947828455026,-0.301358610632,0.0947828455026,-0.301358610632,-0.904971280793,-0.283761072014
6200000000.0,-0.907749361022,-0.279727443488,0.0919992072278,-0.297625994102,0.0919992072278,-0.297625994102,-0.907749361022,-0.279727443488
6300000000.0,-0.910412513206,-0.275778946754,0.0893303960857,-0.293978976242,0.0893303960857,-0.293978976242,-0.910412513206,-0.275778946754
6400000000.0,-0.912966775537,-0.27191343929,0.0867703733959,-0.290415417013,0.0867703733959,-0.290415417013,-0.912966775537,-0.27191343929
6500000000.0,-0.915417809602,-0.268128796156,0.0843134770787,-0.286933193991,0.0843134770787,-0.286933193991,-0.915417809602,-0.268128796156
6600000000.0,-0.917770926921,-0.264422916584,0.081954395118,-0.283530208953,0.081954395118,-0.283530208953,-0.917770926921,-0.264422916584
6700000000.0,-0.920031113456,-0.260793729384,0.0796881410494,-0.28020439329,0.0796881410494,-0.28020439329,-0.920031113456,-0.260793729384
6800000000.0,-0.922203052262,-0.257239197334,0.0775100313142,-0.276953712393,0.0775100313142,-0.276953712393,-0.922203052262,-0.257239197334
6900000000.0,-0.924291144407,-0.253757320688,0.0754156643317,-0.27377616917,0.0754156643317,-0.27377616917,-0.924291144407,-0.253757320688
7000000000.0,-0.926299528328,-0.250346139953,0.0734009011535,-0.270669806818,0.0734009011535,-0.270669806818,-0.926299528328,-0.250346139953
7100000000.0,-0.928232097709,-0.24700373801,0.0714618475734,-0.267632710949,0.0714618475734,-0.267632710949,-0.928232097709,-0.24700373801
7200000000.0,-0.930092518041,-0.243728241706,0.0695948375789,-0.264663011184,0.0695948375789,-0.264663011184,-0.930092518041,-0.243728241706
7300000000.0,-0.931884241927,-0.240517822972,0.0677964180357,-0.261758882268,0.0677964180357,-0.261758882268,-0.931884241927,-0.240517822972
7400000000.0,-0.933610523269,-0.23737069955,0.0660633345085,-0.258918544806,0.0660633345085,-0.258918544806,-0.933610523269,-0.23737069955
7500000000.0,-0.935274430397,-0.234285135393,0.0643925181277,-0.256140265652,0.0643925181277,-0.256140265652,-0.935274430397,-0.234285135393
7600000000.0,-0.93687885824,-0.231259440772,0.0627810734193,-0.253422358031,0.0627810734193,-0.253422358031,-0.93687885824,-0.231259440772
7700000000.0,-0.93842653961,-0.228291972159,0.0612262670217,-0.250763181412,0.0612262670217,-0.250763181412,-0.93842653961,-0.228291972159
7800000000.0,-0.939920055665,-0.225381131904,0.0597255172205,-0.248161141192,0.0597255172205,-0.248161141192,-0.939920055665,-0.225381131904
7900000000.0,-0.941361845622,-0.222525367753,0.0582763842362,-0.245614688213,0.0582763842362,-0.245614688213,-0.941361845622,-0.222525367753
8000000000.0,-0.942754215777,-0.219723172231,0.0568765612065,-0.243122318144,0.0568765612065,-0.243122318144,-0.942754215777,-0.219723172231
8100000000.0,-0.944099347878,-0.216973081909,0.05552386581,-0.240682570754,0.05552386581,-0.240682570754,-0.944099347878,-0.216973081909
8200000000.0,-0.94539930691,-0.214273676593,0.0542162324805,-0.238294029095,0.0542162324805,-0.238294029095,-0.94539930691,-0.214273676593
8300000000.0,-0.94665604834,-0.211623578432,0.0529517051667,-0.235955318615,0.0529517051667,-0.235955318615,-0.94665604834,-0.211623578432
8400000000.0,-0.947871424848,-0.209021450975,0.0517284305968,-0.233665106216,0.0517284305968,-0.233665106216,-0.947871424848,-0.209021450975
8500000000.0,-0.949047192598,-0.20646599819,0.0505446520075,-0.231422099268,0.0505446520075,-0.231422099268,-0.949047192598,-0.20646599819
8600000000.0,-0.950185017079,-0.203955963446,0.0493987033045,-0.2292250446,0.0493987033045,-0.2292250446,-0.950185017079,-0.203955963446
8700000000.0,-0.951286478548,-0.201490128483,0.0482890036198,-0.227072727463,0.0482890036198,-0.227072727463,-0.951286478548,-0.201490128483
8800000000.0,-0.952353077101,-0.199067312362,0.0472140522383,-0.224963970484,0.0472140522383,-0.224963970484,-0.952353077101,-0.199067312362
8900000000.0,-0.953386237407,-0.196686370415,0.0461724238638,-0.222897632618,0.0461724238638,-0.222897632618,-0.953386237407,-0.196686370415
9000000000.0,-0.95438731313,-0.194346193196,0.0451627642021,-0.220872608095,0.0451627642021,-0.220872608095,-0.95438731313,-0.194346193196
9100000000.0,-0.955357591047,-0.192045705434,0.0441837858354,-0.218887825377,0.0441837858354,-0.218887825377,-0.955357591047,-0.192045705434
9200000000.0,-0.956298294906,-0.189783865002,0.0432342643677,-0.216942246124,0.0432342643677,-0.216942246124,-0.956298294906,-0.189783865002
9300000000.0,-0.95721058903,-0.187559661892,0.0423130348228,-0.215034864176,0.0423130348228,-0.215034864176,-0.95721058903,-0.187559661892
9400000000.0,-0.958095581681,-0.185372117217,0.0414189882738,-0.213164704544,0.0414189882738,-0.213164704544,-0.958095581681,-0.185372117217
9500000000.0,-0.958954328222,-0.183220282217,0.0405510686906,-0.211330822427,0.0405510686906,-0.211330822427,-0.958954328222,-0.183220282217
9600000000.0,-0.959787834059,-0.181103237298,0.0397082699878,-0.20953230225,0.0397082699878,-0.20953230225,-0.959787834059,-0.181103237298
9700000000.0,-0.960597057412,-0.17902009109,0.0388896332595,-0.207768256712,0.0388896332595,-0.207768256712,-0.960597057412,-0.17902009109
9800000000.0,-0.961382911905,-0.17696997952,0.0380942441885,-0.206037825873,0.0380942441885,-0.206037825873,-0.961382911905,-0.17696997952
9900000000.0,-0.962146268994,-0.174952064919,0.0373212306161,-0.204340176253,0.0373212306161,-0.204340176253,-0.962146268994,-0.174952064919
10000000000.0,-0.962887960247,-0.172965535147,0.0365697602637,-0.202674499959,0.0365697602637,-0.202674499959,-0.962887960247,-0.172965535147
