freq (GHz),S11_real,S11_imag,S21_real,S21_imag,S12_real,S12_imag,S22_real,S22_imag
100000000.0,0.000798729113511,-0.00187396710439,0.999171293855,-0.00484187952789,0.999171293855,-0.00484187952789,0.000798729113511,-0.00187396710439
200000000.0,0.000773765281653,-0.00374780550781,0.999122165194,-0.00968360183935,0.999122165194,-0.00968360183935,0.000773765281653,-0.00374780550781
300000000.0,0.000729240447089,-0.00562134959934,0.999047483727,-0.0145250407308,0.999047483727,-0.0145250407308,0.000729240447089,-0.00562134959934
400000000.0,0.000665858508103,-0.00749443350555,0.998946549617,-0.0193660477515,0.998946549617,-0.0193660477515,0.000665858508103,-0.00749443350555
500000000.0,0.000583893067156,-0.00936688887578,0.99881909608,-0.0242064655013,0.99881909608,-0.0242064655013,0.000583893067155,-0.00936688887578
600000000.0,0.000483486997988,-0.011238545302,0.99866499003,-0.02904613114,0.99866499003,-0.02904613114,0.000483486997988,-0.011238545302
700000000.0,0.000364728561389,-0.0131092307122,0.998484156119,-0.0338848780258,0.998484156119,-0.0338848780258,0.00036472856139,-0.0131092307122
800000000.0,0.000227679184709,-0.0149787716708,0.998276549075,-0.0387225366529,0.998276549075,-0.0387225366529,0.000227679184709,-0.0149787716708
900000000.0,7.23858374572e-05,-0.0168469936083,0.998042141418,-0.0435589352566,0.998042141418,-0.0435589352566,7.23858374574e-05,-0.0168469936083
1000000000.0,-0.000101112688197,-0.0187137210023,0.997780917258,-0.0483939002353,0.997780917258,-0.0483939002353,-0.000101112688197,-0.0187137210023
1100000000.0,-0.000292782279342,-0.0205787775251,0.997492868867,-0.053227256463,0.997492868867,-0.053227256463,-0.000292782279342,-0.0205787775251
1200000000.0,-0.000502591412108,-0.0224419861666,0.997177994641,-0.0580588275306,0.997177994641,-0.0580588275306,-0.000502591412108,-0.0224419861666
1300000000.0,-0.000730509831793,-0.0243031693389,0.996836297829,-0.0628884359398,0.996836297829,-0.0628884359398,-0.000730509831793,-0.0243031693389
1400000000.0,-0.000976507681383,-0.0261621489692,0.996467785708,-0.0677159032627,0.996467785708,-0.0677159032627,-0.000976507681383,-0.0261621489692
1500000000.0,-0.00124055490452,-0.0280187465804,0.996072469019,-0.0725410502769,0.996072469019,-0.0725410502769,-0.00124055490452,-0.0280187465804
1600000000.0,-0.00152262082362,-0.0298727833659,0.995650361581,-0.077363697082,0.995650361581,-0.077363697082,-0.00152262082362,-0.0298727833659
1700000000.0,-0.00182267383385,-0.0317240802563,0.995201480014,-0.0821836632017,0.995201480014,-0.0821836632017,-0.00182267383385,-0.0317240802563
1800000000.0,-0.0021406811761,-0.0335724579823,0.994725843535,-0.0870007676752,0.994725843535,-0.0870007676752,-0.0021406811761,-0.0335724579823
1900000000.0,-0.00247660876521,-0.0354177371329,0.994223473809,-0.0918148291395,0.994223473809,-0.0918148291395,-0.00247660876521,-0.0354177371329
2000000000.0,-0.002830421058,-0.0372597382102,0.993694394837,-0.0966256659045,0.993694394837,-0.0966256659045,-0.002830421058,-0.0372597382102
2100000000.0,-0.00320208095027,-0.039098281682,0.993138632869,-0.101433096022,0.993138632869,-0.101433096022,-0.00320208095027,-0.039098281682
2200000000.0,-0.00359154969564,-0.0409331880306,0.992556216335,-0.106236937352,0.992556216335,-0.106236937352,-0.00359154969564,-0.0409331880306
2300000000.0,-0.00399878684082,-0.0427642778015,0.991947175796,-0.111037007619,0.991947175796,-0.111037007619,-0.00399878684082,-0.0427642778015
2400000000.0,-0.00442375017376,-0.0445913716484,0.991311543896,-0.115833124475,0.991311543896,-0.115833124475,-0.00442375017376,-0.0445913716484
2500000000.0,-0.00486639568182,-0.0464142903781,0.99064935533,-0.120625105546,0.99064935533,-0.120625105546,-0.00486639568182,-0.0464142903781
2600000000.0,-0.0053266775179,-0.0482328549934,0.989960646816,-0.125412768492,0.989960646816,-0.125412768492,-0.0053266775179,-0.0482328549934
2700000000.0,-0.00580454797311,-0.0500468867348,0.989245457068,-0.130195931049,0.989245457068,-0.130195931049,-0.00580454797311,-0.0500468867348
2800000000.0,-0.00629995745475,-0.0518562071217,0.988503826781,-0.13497441108,0.988503826781,-0.13497441108,-0.00629995745475,-0.0518562071217
2900000000.0,-0.00681285446863,-0.0536606379917,0.987735798603,-0.139748026621,0.987735798603,-0.139748026621,-0.00681285446863,-0.0536606379917
3000000000.0,-0.00734318560513,-0.05546000154,0.986941417131,-0.144516595922,0.986941417131,-0.144516595922,-0.00734318560513,-0.05546000154
3100000000.0,-0.00789089552842,-0.0572541203575,0.986120728886,-0.149279937494,0.986120728886,-0.149279937494,-0.00789089552842,-0.0572541203575
3200000000.0,-0.00845592696832,-0.0590428174679,0.985273782306,-0.154037870147,0.985273782306,-0.154037870147,-0.00845592696832,-0.0590428174679
3300000000.0,-0.00903822071457,-0.0608259163653,0.984400627731,-0.158790213031,0.984400627731,-0.158790213031,-0.00903822071457,-0.0608259163653
3400000000.0,-0.00963771561311,-0.0626032410496,0.983501317389,-0.163536785676,0.983501317389,-0.163536785676,-0.00963771561311,-0.0626032410496
3500000000.0,-0.0102543485642,-0.0643746160623,0.982575905388,-0.168277408033,0.982575905388,-0.168277408033,-0.0102543485642,-0.0643746160623
3600000000.0,-0.0108880545222,-0.0661398665219,0.981624447704,-0.173011900507,0.981624447704,-0.173011900507,-0.0108880545222,-0.0661398665219
3700000000.0,-0.0115387664967,-0.0678988181579,0.980647002164,-0.177740083993,0.980647002164,-0.177740083993,-0.0115387664967,-0.0678988181579
3800000000.0,-0.0122064155552,-0.0696512973449,0.979643628443,-0.182461779919,0.979643628443,-0.182461779919,-0.0122064155552,-0.0696512973449
3900000000.0,-0.0128909308269,-0.0713971311362,0.978614388046,-0.187176810275,0.978614388046,-0.187176810275,-0.0128909308269,-0.0713971311362
4000000000.0,-0.0135922395072,-0.0731361472967,0.977559344297,-0.191884997647,0.977559344297,-0.191884997647,-0.0135922395072,-0.0731361472967
4100000000.0,-0.0143102668644,-0.0748681743354,0.97647856233,-0.196586165255,0.97647856233,-0.196586165255,-0.0143102668644,-0.0748681743354
4200000000.0,-0.0150449362459,-0.0765930415376,0.975372109074,-0.201280136984,0.975372109074,-0.201280136984,-0.0150449362459,-0.0765930415376
4300000000.0,-0.0157961690864,-0.0783105789964,0.974240053242,-0.205966737417,0.974240053242,-0.205966737417,-0.0157961690864,-0.0783105789964
4400000000.0,-0.0165638849164,-0.0800206176439,0.973082465317,-0.210645791865,0.973082465317,-0.210645791865,-0.0165638849164,-0.0800206176439
4500000000.0,-0.017348001372,-0.081722989282,0.971899417538,-0.215317126401,0.971899417538,-0.215317126401,-0.017348001372,-0.081722989282
4600000000.0,-0.0181484342048,-0.0834175266125,0.970690983889,-0.21998056789,0.970690983889,-0.21998056789,-0.0181484342048,-0.0834175266125
4700000000.0,-0.0189650972933,-0.0851040632673,0.969457240084,-0.22463594402,0.969457240084,-0.22463594402,-0.0189650972933,-0.0851040632673
4800000000.0,-0.019797902654,-0.0867824338377,0.968198263549,-0.229283083328,0.968198263549,-0.229283083328,-0.019797902654,-0.0867824338377
4900000000.0,-0.0206467604545,-0.0884524739033,0.966914133414,-0.233921815235,0.966914133414,-0.233921815235,-0.0206467604545,-0.0884524739033
5000000000.0,-0.0215115790261,-0.0901140200608,0.965604930492,-0.23855197007,0.965604930492,-0.23855197007,-0.0215115790261,-0.0901140200608
5100000000.0,-0.0223922648772,-0.0917669099519,0.964270737265,-0.243173379101,0.964270737265,-0.243173379101,-0.0223922648772,-0.0917669099519
5200000000.0,-0.0232887227083,-0.0934109822915,0.962911637871,-0.247785874562,0.962911637871,-0.247785874562,-0.0232887227083,-0.0934109822915
5300000000.0,-0.0242008554258,-0.0950460768942,0.961527718082,-0.252389289677,0.961527718082,-0.252389289677,-0.0242008554258,-0.0950460768942
5400000000.0,-0.0251285641582,-0.0966720347023,0.960119065293,-0.256983458692,0.960119065293,-0.256983458692,-0.0251285641582,-0.0966720347023
5500000000.0,-0.0260717482713,-0.098288697811,0.9586857685,-0.261568216897,0.9586857685,-0.261568216897,-0.0260717482713,-0.098288697811
5600000000.0,-0.0270303053851,-0.0998959094955,0.957227918287,-0.266143400656,0.957227918287,-0.266143400656,-0.0270303053851,-0.0998959094955
5700000000.0,-0.0280041313904,-0.101493514236,0.955745606803,-0.270708847425,0.955745606803,-0.270708847425,-0.0280041313904,-0.101493514236
5800000000.0,-0.0289931204662,-0.103081357742,0.954238927747,-0.275264395783,0.954238927747,-0.275264395783,-0.0289931204662,-0.103081357742
5900000000.0,-0.0299971650974,-0.10465928698,0.952707976351,-0.279809885456,0.952707976351,-0.279809885456,-0.0299971650974,-0.10465928698
6000000000.0,-0.0310161560934,-0.106227150194,0.951152849355,-0.284345157334,0.951152849355,-0.284345157334,-0.0310161560934,-0.106227150194
6100000000.0,-0.0320499826065,-0.10778479693,0.949573644992,-0.288870053504,0.949573644992,-0.288870053504,-0.0320499826065,-0.10778479693
6200000000.0,-0.0330985321509,-0.109332078063,0.947970462969,-0.293384417263,0.947970462969,-0.293384417263,-0.0330985321509,-0.109332078063
6300000000.0,-0.0341616906228,-0.110868845815,0.946343404443,-0.297888093148,0.946343404443,-0.297888093148,-0.0341616906228,-0.110868845815
6400000000.0,-0.0352393423197,-0.112394953781,0.944692572002,-0.302380926952,0.944692572002,-0.302380926952,-0.0352393423197,-0.112394953781
6500000000.0,-0.0363313699607,-0.113910256949,0.943018069648,-0.306862765748,0.943018069648,-0.306862765748,-0.0363313699607,-0.113910256949
6600000000.0,-0.0374376547077,-0.115414611721,0.941320002769,-0.31133345791,0.941320002769,-0.31133345791,-0.0374376547077,-0.115414611721
6700000000.0,-0.038558076186,-0.116907875936,0.939598478123,-0.315792853131,0.939598478123,-0.315792853131,-0.038558076186,-0.116907875936
6800000000.0,-0.0396925125054,-0.118389908891,0.937853603814,-0.320240802444,0.937853603814,-0.320240802444,-0.0396925125054,-0.118389908891
6900000000.0,-0.0408408402824,-0.119860571357,0.936085489271,-0.324677158241,0.936085489271,-0.324677158241,-0.0408408402824,-0.119860571357
7000000000.0,-0.042002934662,-0.121319725605,0.934294245224,-0.329101774292,0.934294245224,-0.329101774292,-0.042002934662,-0.121319725605
7100000000.0,-0.0431786693396,-0.122767235419,0.932479983682,-0.333514505763,0.932479983682,-0.333514505763,-0.0431786693396,-0.122767235419
7200000000.0,-0.0443679165841,-0.124202966117,0.930642817914,-0.337915209231,0.930642817914,-0.337915209231,-0.0443679165841,-0.124202966117
7300000000.0,-0.0455705472604,-0.125626784572,0.928782862417,-0.342303742707,0.928782862417,-0.342303742707,-0.0455705472604,-0.125626784572
7400000000.0,-0.0467864308527,-0.127038559226,0.926900232904,-0.346679965645,0.926900232904,-0.346679965645,-0.0467864308527,-0.127038559226
7500000000.0,-0.0480154354877,-0.128438160107,0.92499504627,-0.351043738965,0.92499504627,-0.351043738965,-0.0480154354877,-0.128438160107
7600000000.0,-0.0492574279583,-0.12982545885,0.923067420575,-0.355394925065,0.923067420575,-0.355394925065,-0.0492574279583,-0.12982545885
7700000000.0,-0.0505122737474,-0.13120032871,0.921117475018,-0.359733387835,0.921117475018,-0.359733387835,-0.0505122737474,-0.13120032871
7800000000.0,-0.051779837052,-0.132562644576,0.919145329911,-0.364058992676,0.919145329911,-0.364058992676,-0.051779837052,-0.132562644576
7900000000.0,-0.0530599808074,-0.133912282992,0.917151106658,-0.368371606509,0.917151106658,-0.368371606509,-0.0530599808074,-0.133912282992
8000000000.0,-0.0543525667118,-0.135249122167,0.915134927727,-0.372671097792,0.915134927727,-0.372671097792,-0.0543525667118,-0.135249122167
8100000000.0,-0.0556574552506,-0.136573041991,0.913096916628,-0.376957336531,0.913096916628,-0.376957336531,-0.0556574552506,-0.136573041991
8200000000.0,-0.0569745057216,-0.137883924048,0.911037197885,-0.381230194294,0.911037197885,-0.381230194294,-0.0569745057216,-0.137883924048
8300000000.0,-0.0583035762598,-0.139181651633,0.908955897016,-0.385489544222,0.908955897016,-0.385489544222,-0.0583035762598,-0.139181651633
8400000000.0,-0.0596445238626,-0.140466109759,0.906853140501,-0.389735261042,0.906853140501,-0.389735261042,-0.0596445238626,-0.140466109759
8500000000.0,-0.060997204415,-0.141737185174,0.904729055764,-0.393967221074,0.904729055764,-0.393967221074,-0.060997204415,-0.141737185174
8600000000.0,-0.0623614727149,-0.142994766371,0.902583771141,-0.398185302248,0.902583771141,-0.398185302248,-0.0623614727149,-0.142994766371
8700000000.0,-0.063737182499,-0.1442387436,0.900417415858,-0.402389384106,0.900417415858,-0.402389384106,-0.063737182499,-0.1442387436
8800000000.0,-0.0651241864681,-0.14546900888,0.898230120006,-0.406579347818,0.898230120006,-0.406579347818,-0.0651241864681,-0.14546900888
8900000000.0,-0.0665223363128,-0.146685456005,0.896022014511,-0.41075507619,0.896022014511,-0.41075507619,-0.0665223363128,-0.146685456005
9000000000.0,-0.0679314827398,-0.147887980561,0.893793231115,-0.414916453667,0.893793231115,-0.414916453667,-0.0679314827398,-0.147887980561
9100000000.0,-0.069351475497,-0.149076479929,0.891543902342,-0.419063366349,0.891543902342,-0.419063366349,-0.069351475497,-0.149076479929
9200000000.0,-0.0707821634003,-0.150250853299,0.88927416148,-0.423195701993,0.88927416148,-0.423195701993,-0.0707821634003,-0.150250853299
9300000000.0,-0.0722233943592,-0.151411001673,0.886984142549,-0.42731335002,0.886984142549,-0.42731335002,-0.0722233943592,-0.151411001673
9400000000.0,-0.0736750154028,-0.152556827881,0.884673980277,-0.431416201523,0.884673980277,-0.431416201523,-0.0736750154028,-0.152556827881
9500000000.0,-0.0751368727062,-0.153688236579,0.882343810075,-0.435504149275,0.882343810075,-0.435504149275,-0.0751368727062,-0.153688236579
9600000000.0,-0.0766088116163,-0.154805134265,0.87999376801,-0.43957708773,0.87999376801,-0.43957708773,-0.0766088116163,-0.154805134265
9700000000.0,-0.0780906766785,-0.155907429279,0.877623990778,-0.443634913031,0.877623990778,-0.443634913031,-0.0780906766785,-0.155907429279
9800000000.0,-0.0795823116623,-0.156995031815,0.875234615681,-0.447677523013,0.875234615681,-0.447677523013,-0.0795823116623,-0.156995031815
9900000000.0,-0.0810835595878,-0.158067853919,0.872825780596,-0.451704817207,0.872825780596,-0.451704817207,-0.0810835595878,-0.158067853919
10000000000.0,-0.0825942627518,-0.159125809504,0.870397623953,-0.455716696846,0.870397623953,-0.455716696846,-0.0825942627518,-0.159125809504
