freq (GHz),S11_real,S11_imag,S21_real,S21_imag,S12_real,S12_imag,S22_real,S22_imag
100000000.0,-0.000878079880172,-0.0301076827979,0.998987925465,-0.0303452540267,0.998987925465,-0.0303452540267,-0.000878079880172,-0.0301076827979
200000000.0,-0.00364083355927,-0.0600460563353,0.996224173114,-0.0605212158028,0.996224173114,-0.0605212158028,-0.00364083355927,-0.0600460563353
300000000.0,-0.00819205817405,-0.0896527787923,0.991672123801,-0.0903655534658,0.991672123801,-0.0903655534658,-0.00819205817405,-0.0896527787923
400000000.0,-0.0144824965226,-0.11877154411,0.985380919453,-0.119721968954,0.985380919453,-0.119721968954,-0.0144824965226,-0.11877154411
500000000.0,-0.0224453374581,-0.147254711051,0.977417327011,-0.148442828066,0.977417327011,-0.148442828066,-0.0224453374581,-0.147254711051
600000000.0,-0.0319979302634,-0.174965634812,0.967863974737,-0.176391492413,0.967863974737,-0.176391492413,-0.0319979302634,-0.174965634812
700000000.0,-0.0430438580048,-0.201780615291,0.956817266339,-0.203444267843,0.956817266339,-0.203444267843,-0.0430438580048,-0.201780615291
800000000.0,-0.0554752619,-0.227590409803,0.944385052052,-0.22949191727,0.944385052052,-0.22949191727,-0.0554752619,-0.227590409803
900000000.0,-0.0691753147822,-0.252301284136,0.93068415315,-0.254440711786,0.93068415315,-0.254440711786,-0.0691753147822,-0.252301284136
1000000000.0,-0.0840207446716,-0.275835600077,0.915837837349,-0.278213018238,0.915837837349,-0.278213018238,-0.0840207446716,-0.275835600077
1100000000.0,-0.0998843167434,-0.29813195927,0.89997333627,-0.300747443113,0.89997333627,-0.300747443113,-0.0998843167434,-0.29813195927
1200000000.0,-0.116637193511,-0.319144941321,0.88321948492,-0.321998570679,0.88321948492,-0.321998570679,-0.116637193511,-0.319144941321
1300000000.0,-0.134151107673,-0.338844487773,0.865704548632,-0.34193634697,0.865704548632,-0.34193634697,-0.134151107673,-0.338844487773
1400000000.0,-0.15230029838,-0.357214992467,0.847554286661,-0.360545170172,0.847554286661,-0.360545170172,-0.15230029838,-0.357214992467
1500000000.0,-0.170963178309,-0.374254163229,0.828890285013,-0.377822752315,0.828890285013,-0.377822752315,-0.170963178309,-0.374254163229
1600000000.0,-0.190023714759,-0.389971719962,0.809828575284,-0.393778817384,0.809828575284,-0.393778817384,-0.190023714759,-0.389971719962
1700000000.0,-0.209372522072,-0.404387991094,0.790478542191,-0.408433697773,0.790478542191,-0.408433697773,-0.209372522072,-0.404387991094
1800000000.0,-0.228907674507,-0.417532464483,0.770942110665,-0.421816885197,0.770942110665,-0.421816885197,-0.228907674507,-0.417532464483
1900000000.0,-0.248535257923,-0.429442341367,0.751313194139,-0.433965584652,0.751313194139,-0.433965584652,-0.248535257923,-0.429442341367
2000000000.0,-0.268169685262,-0.440161133498,0.731677379047,-0.444923311552,0.731677379047,-0.444923311552,-0.268169685262,-0.440161133498
2100000000.0,-0.287733804994,-0.449737334886,0.712111816364,-0.454738563482,0.712111816364,-0.454738563482,-0.287733804994,-0.449737334886
2200000000.0,-0.307158833673,-0.458223191193,0.692685289035,-0.463463589596,0.692685289035,-0.463463589596,-0.307158833673,-0.458223191193
2300000000.0,-0.326384143991,-0.465673582134,0.673458423913,-0.47115327302,0.673458423913,-0.47115327302,-0.326384143991,-0.465673582134
2400000000.0,-0.345356938532,-0.472145025502,0.654484018001,-0.477864134886,0.654484018001,-0.477864134886,-0.345356938532,-0.472145025502
2500000000.0,-0.364031837208,-0.477694805793,0.635807451005,-0.483653462955,0.635807451005,-0.483653462955,-0.364031837208,-0.477694805793
2600000000.0,-0.382370403548,-0.482380225888,0.617467159038,-0.488578563306,0.617467159038,-0.488578563306,-0.382370403548,-0.482380225888
2700000000.0,-0.40034063179,-0.486257976761,0.599495147532,-0.492696130048,0.599495147532,-0.492696130048,-0.40034063179,-0.486257976761
2800000000.0,-0.417916413382,-0.489383617735,0.581917524728,-0.496061725575,0.581917524728,-0.496061725575,-0.417916413382,-0.489383617735
2900000000.0,-0.435076998268,-0.49181115812,0.564755040384,-0.498729362209,0.564755040384,-0.498729362209,-0.435076998268,-0.49181115812
3000000000.0,-0.451806463263,-0.493592730164,0.548023617407,-0.500751175155,0.548023617407,-0.500751175155,-0.451806463263,-0.493592730164
3100000000.0,-0.468093197032,-0.494778342875,0.531734866861,-0.502177176323,0.531734866861,-0.502177176323,-0.468093197032,-0.494778342875
3200000000.0,-0.483929408743,-0.495415706342,0.515896579323,-0.503055078654,0.515896579323,-0.503055078654,-0.483929408743,-0.495415706342
3300000000.0,-0.499310665359,-0.495550116592,0.500513187579,-0.503430180973,0.500513187579,-0.503430180973,-0.499310665359,-0.495550116592
3400000000.0,-0.514235460748,-0.495224391622,0.485586197523,-0.50334530403,0.485586197523,-0.50334530403,-0.514235460748,-0.495224391622
3500000000.0,-0.528704818355,-0.494478850048,0.471114585473,-0.502840769149,0.471114585473,-0.502840769149,-0.528704818355,-0.494478850048
3600000000.0,-0.54272192802,-0.493351324616,0.457095161363,-0.501954411736,0.457095161363,-0.501954411736,-0.54272192802,-0.493351324616
3700000000.0,-0.55629181662,-0.491877203705,0.443522898094,-0.500721622792,0.443522898094,-0.500721622792,-0.55629181662,-0.491877203705
3800000000.0,-0.569421051533,-0.490089494819,0.430391228068,-0.499175412399,0.430391228068,-0.499175412399,-0.569421051533,-0.490089494819
3900000000.0,-0.582117475454,-0.488018904857,0.417692308376,-0.497346489996,0.417692308376,-0.497346489996,-0.582117475454,-0.488018904857
4000000000.0,-0.594389970735,-0.485693932739,0.405417256452,-0.495263357004,0.405417256452,-0.495263357004,-0.594389970735,-0.485693932739
4100000000.0,-0.606248251227,-0.483140970643,0.393556358239,-0.492952408068,0.393556358239,-0.492952408068,-0.606248251227,-0.483140970643
4200000000.0,-0.61770267949,-0.480384410749,0.382099250968,-0.490438037797,0.382099250968,-0.490438037797,-0.61770267949,-0.480384410749
4300000000.0,-0.628764107214,-0.477446754929,0.371035082746,-0.487742750459,0.371035082746,-0.487742750459,-0.628764107214,-0.477446754929
4400000000.0,-0.639443736708,-0.474348725319,0.360352651058,-0.484887270557,0.360352651058,-0.484887270557,-0.639443736708,-0.474348725319
4500000000.0,-0.649753001414,-0.471109374118,0.350040522262,-0.48189065262,0.350040522262,-0.48189065262,-0.649753001414,-0.471109374118
4600000000.0,-0.659703463448,-0.467746191322,0.340087134038,-0.478770388947,0.340087134038,-0.478770388947,-0.659703463448,-0.467746191322
4700000000.0,-0.66930672637,-0.464275209409,0.330480882626,-0.475542514291,0.330480882626,-0.475542514291,-0.66930672637,-0.464275209409
4800000000.0,-0.678574361436,-0.460711104242,0.321210196572,-0.472221706759,0.321210196572,-0.472221706759,-0.678574361436,-0.460711104242
4900000000.0,-0.687517845775,-0.457067291662,0.312263598544,-0.468821384414,0.312263598544,-0.468821384414,-0.687517845775,-0.457067291662
5000000000.0,-0.696148511053,-0.453356019433,0.303629756679,-0.465353797211,0.303629756679,-0.465353797211,-0.696148511053,-0.453356019433
5100000000.0,-0.704477501314,-0.449588454328,0.295297526731,-0.461830114093,0.295297526731,-0.461830114093,-0.704477501314,-0.449588454328
5200000000.0,-0.712515738825,-0.445774764258,0.287255986234,-0.458260505114,0.287255986234,-0.458260505114,-0.712515738825,-0.445774764258
5300000000.0,-0.720273896878,-0.441924195449,0.279494461695,-0.454654218624,0.279494461695,-0.454654218624,-0.720273896878,-0.441924195449
5400000000.0,-0.727762378598,-0.438045144731,0.272002549789,-0.451019653551,0.272002549789,-0.451019653551,-0.727762378598,-0.438045144731
5500000000.0,-0.73499130092,-0.434145227052,0.264770133379,-0.447364426924,0.264770133379,-0.447364426924,-0.73499130092,-0.434145227052
5600000000.0,-0.741970483016,-0.430231338386,0.257787393091,-0.443695436773,0.257787393091,-0.443695436773,-0.741970483016,-0.430231338386
5700000000.0,-0.748709438486,-0.426309714214,0.251044815124,-0.44001892062,0.251044815124,-0.44001892062,-0.748709438486,-0.426309714214
5800000000.0,-0.755217370768,-0.42238598379,0.244533195834,-0.43634050974,0.244533195834,-0.43634050974,-0.755217370768,-0.42238598379
5900000000.0,-0.761503171251,-0.418465220412,0.238243643629,-0.432665279432,0.238243643629,-0.432665279432,-0.761503171251,-0.418465220412
6000000000.0,-0.767575419654,-0.414551987908,0.232167578584,-0.428997795512,0.232167578584,-0.428997795512,-0.767575419654,-0.414551987908
6100000000.0,-0.77344238629,-0.410650383591,0.226296730181,-0.425342157261,0.226296730181,-0.425342157261,-0.77344238629,-0.410650383591
6200000000.0,-0.77911203588,-0.406764077869,0.220623133491,-0.421702037042,0.220623133491,-0.421702037042,-0.77911203588,-0.406764077869
6300000000.0,-0.784592032637,-0.402896350769,0.215139124092,-0.41808071682,0.215139124092,-0.41808071682,-0.784592032637,-0.402896350769
6400000000.0,-0.789889746369,-0.399050125548,0.209837331968,-0.414481121779,0.209837331968,-0.414481121779,-0.789889746369,-0.399050125548
6500000000.0,-0.795012259379,-0.395227999628,0.204710674603,-0.410905851252,0.204710674603,-0.410905851252,-0.795012259379,-0.395227999628
6600000000.0,-0.799966374,-0.391432273024,0.199752349453,-0.407357207152,0.199752349453,-0.407357207152,-0.799966374,-0.391432273024
6700000000.0,-0.804758620585,-0.387664974462,0.194955825951,-0.403837220093,0.194955825951,-0.403837220093,-0.804758620585,-0.387664974462
6800000000.0,-0.809395265844,-0.383927885356,0.190314837173,-0.400347673364,0.190314837173,-0.400347673364,-0.809395265844,-0.383927885356
6900000000.0,-0.813882321393,-0.380222561811,0.185823371286,-0.396890124933,0.185823371286,-0.396890124933,-0.813882321393,-0.380222561811
7000000000.0,-0.818225552437,-0.376550354797,0.181475662868,-0.393465927626,0.181475662868,-0.393465927626,-0.818225552437,-0.376550354797
7100000000.0,-0.822430486502,-0.372912428649,0.177266184174,-0.39007624762,0.177266184174,-0.39007624762,-0.822430486502,-0.372912428649
7200000000.0,-0.826502422148,-0.369309778012,0.173189636424,-0.386722081397,0.173189636424,-0.386722081397,-0.826502422148,-0.369309778012
7300000000.0,-0.830446437611,-0.365743243368,0.169240941157,-0.383404271264,0.169240941157,-0.383404271264,-0.830446437611,-0.365743243368
7400000000.0,-0.834267399336,-0.36221352525,0.165415231708,-0.380123519575,0.165415231708,-0.380123519575,-0.834267399336,-0.36221352525
7500000000.0,-0.837969970346,-0.358721197256,0.161707844828,-0.376880401736,0.161707844828,-0.376880401736,-0.837969970346,-0.358721197256
7600000000.0,-0.841558618442,-0.35526671795,0.158114312488,-0.373675378117,0.158114312488,-0.373675378117,-0.841558618442,-0.35526671795
7700000000.0,-0.845037624194,-0.351850441763,0.15463035389,-0.370508804946,0.15463035389,-0.370508804946,-0.845037624194,-0.351850441763
7800000000.0,-0.848411088714,-0.348472628949,0.151251867692,-0.367380944268,0.151251867692,-0.367380944268,-0.848411088714,-0.348472628949
7900000000.0,-0.851682941197,-0.345133454698,0.147974924469,-0.364291973058,0.147974924469,-0.364291973058,-0.851682941197,-0.345133454698
8000000000.0,-0.854856946216,-0.341833017457,0.144795759412,-0.361241991546,0.144795759412,-0.361241991546,-0.854856946216,-0.341833017457
8100000000.0,-0.857936710774,-0.338571346545,0.141710765284,-0.358231030827,0.141710765284,-0.358231030827,-0.857936710774,-0.338571346545
8200000000.0,-0.860925691104,-0.335348409099,0.138716485615,-0.355259059809,0.138716485615,-0.355259059809,-0.860925691104,-0.335348409099
8300000000.0,-0.863827199216,-0.33216411643,0.135809608157,-0.352325991572,0.135809608157,-0.352325991572,-0.863827199216,-0.33216411643
8400000000.0,-0.866644409196,-0.329018329811,0.132986958582,-0.349431689154,0.132986958582,-0.349431689154,-0.866644409196,-0.329018329811
8500000000.0,-0.869380363255,-0.325910865779,0.130245494437,-0.346575970855,0.130245494437,-0.346575970855,-0.869380363255,-0.325910865779
8600000000.0,-0.872037977537,-0.322841500957,0.127582299336,-0.343758615058,0.127582299336,-0.343758615058,-0.872037977537,-0.322841500957
8700000000.0,-0.874620047682,-0.319809976467,0.12499457739,-0.340979364642,0.12499457739,-0.340979364642,-0.874620047682,-0.319809976467
8800000000.0,-0.877129254165,-0.316816001938,0.122479647879,-0.338237930994,0.122479647879,-0.338237930994,-0.877129254165,-0.316816001938
8900000000.0,-0.879568167395,-0.313859259181,0.120034940143,-0.335533997679,0.120034940143,-0.335533997679,-0.879568167395,-0.313859259181
9000000000.0,-0.881939252605,-0.310939405516,0.117657988696,-0.33286722377,0.117657988696,-0.33286722377,-0.881939252605,-0.310939405516
9100000000.0,-0.884244874522,-0.308056076817,0.115346428559,-0.330237246898,0.115346428559,-0.330237246898,-0.884244874522,-0.308056076817
9200000000.0,-0.886487301831,-0.30520889028,0.113097990792,-0.327643686011,0.113097990792,-0.327643686011,-0.886487301831,-0.30520889028
9300000000.0,-0.888668711439,-0.302397446939,0.110910498228,-0.325086143897,0.110910498228,-0.325086143897,-0.888668711439,-0.302397446939
9400000000.0,-0.890791192551,-0.299621333961,0.108781861405,-0.322564209477,0.108781861405,-0.322564209477,-0.890791192551,-0.299621333961
9500000000.0,-0.892856750558,-0.296880126719,0.106710074669,-0.320077459881,0.106710074669,-0.320077459881,-0.892856750558,-0.296880126719
9600000000.0,-0.894867310746,-0.294173390693,0.10469321247,-0.317625462344,0.10469321247,-0.317625462344,-0.894867310746,-0.294173390693
9700000000.0,-0.896824721843,-0.291500683178,0.102729425816,-0.31520777592,0.102729425816,-0.31520777592,-0.896824721843,-0.291500683178
9800000000.0,-0.898730759394,-0.288861554844,0.100816938893,-0.312823953039,0.100816938893,-0.312823953039,-0.898730759394,-0.288861554844
9900000000.0,-0.900587128985,-0.286255551142,0.0989540458451,-0.310473540917,0.0989540458451,-0.310473540917,-0.900587128985,-0.286255551142
10000000000.0,-0.902395469316,-0.283682213586,0.0971391076993,-0.308156082829,0.0971391076993,-0.308156082829,-0.902395469316,-0.283682213586
