freq (GHz),S11_real,S11_imag,S21_real,S21_imag,S12_real,S12_imag,S22_real,S22_imag
100000000.0,0.000187508668977,-0.000218059247161,0.999810029037,-0.000782531864207,0.999810029037,-0.000782531864207,0.000187508668977,-0.000218059247161
200000000.0,0.000187783450903,-0.000436129183829,0.999807290619,-0.00156508059004,0.999807290619,-0.00156508059004,0.000187783450903,-0.000436129183829
300000000.0,0.000187386139523,-0.000654214149723,0.999804222805,-0.00234765626585,0.999804222805,-0.00234765626585,0.000187386139523,-0.000654214149723
400000000.0,0.000186479983001,-0.000872317535618,0.999800662151,-0.00313026624962,0.999800662151,-0.00313026624962,0.000186479983,-0.000872317535618
500000000.0,0.000185127685231,-0.00109044213935,0.999796545728,-0.00391291662167,0.999796545728,-0.00391291662167,0.000185127685231,-0.00109044213935
600000000.0,0.000183361114464,-0.00130859034338,0.999791841409,-0.0046956126425,0.999791841409,-0.0046956126425,0.000183361114464,-0.00130859034338
700000000.0,0.000181199010741,-0.00152676421424,0.999786530172,-0.00547835898014,0.999786530172,-0.00547835898014,0.000181199010741,-0.00152676421424
800000000.0,0.0001786534442,-0.00174496556433,0.999780599639,-0.00626115984359,0.999780599639,-0.00626115984359,0.0001786534442,-0.00174496556433
900000000.0,0.000175732688973,-0.00196319599467,0.99977404121,-0.00704401907059,0.99977404121,-0.00704401907059,0.000175732688973,-0.00196319599467
1000000000.0,0.000172442679048,-0.00218145692492,0.999766848602,-0.00782694018824,0.999766848602,-0.00782694018824,0.000172442679047,-0.00218145692492
1100000000.0,0.000168787817295,-0.00239974961688,0.999759017048,-0.00860992645836,0.999759017048,-0.00860992645836,0.000168787817294,-0.00239974961688
1200000000.0,0.000164771457323,-0.00261807519187,0.999750542813,-0.00939298091125,0.999750542813,-0.00939298091125,0.000164771457322,-0.00261807519187
1300000000.0,0.000160396206611,-0.00283643464564,0.999741422894,-0.0101761063732,0.999741422894,-0.0101761063732,0.000160396206611,-0.00283643464564
1400000000.0,0.000155664125691,-0.00305482885951,0.999731654819,-0.0109593054875,0.999731654819,-0.0109593054875,0.000155664125691,-0.00305482885951
1500000000.0,0.000150576863941,-0.00327325861039,0.999721236516,-0.0117425807327,0.999721236516,-0.0117425807327,0.000150576863941,-0.00327325861039
1600000000.0,0.000145135754927,-0.00349172457904,0.999710166217,-0.0125259344371,0.999710166217,-0.0125259344371,0.000145135754927,-0.00349172457904
1700000000.0,0.000139341885177,-0.00371022735689,0.99969844239,-0.0133093687915,0.99969844239,-0.0133093687915,0.000139341885177,-0.00371022735689
1800000000.0,0.000133196144872,-0.00392876745252,0.999686063687,-0.0140928858599,0.999686063687,-0.0140928858599,0.000133196144872,-0.00392876745252
1900000000.0,0.000126699265959,-0.00414734529673,0.999673028912,-0.0148764875888,0.999673028912,-0.0148764875888,0.000126699265959,-0.00414734529673
2000000000.0,0.00011985185131,-0.00436596124736,0.999659336986,-0.0156601758154,0.999659336986,-0.0156601758154,0.000119851851311,-0.00436596124736
2100000000.0,0.000112654397363,-0.00458461559347,0.999644986932,-0.0164439522744,0.999644986932,-0.0164439522744,0.000112654397363,-0.00458461559347
2200000000.0,0.000105107311954,-0.00480330855913,0.99962997785,-0.0172278186049,0.99962997785,-0.0172278186049,0.000105107311954,-0.00480330855913
2300000000.0,9.7210928542e-05,-0.00502204030696,0.99961430891,-0.0180117763559,0.99961430891,-0.0180117763559,9.72109285424e-05,-0.00502204030696
2400000000.0,8.89655176628e-05,-0.00524081094095,0.999597979339,-0.0187958269911,0.999597979339,-0.0187958269911,8.89655176628e-05,-0.00524081094095
2500000000.0,8.03712962747e-05,-0.00545962050948,0.99958098841,-0.019579971894,0.99958098841,-0.019579971894,8.03712962745e-05,-0.00545962050948
2600000000.0,7.14284354353e-05,-0.00567846900784,0.999563335436,-0.0203642123718,0.999563335436,-0.0203642123718,7.14284354353e-05,-0.00567846900784
2700000000.0,6.21370666711e-05,-0.00589735638063,0.999545019767,-0.0211485496591,0.999545019767,-0.0211485496591,6.21370666707e-05,-0.00589735638063
2800000000.0,5.24972872984e-05,-0.00611628252385,0.999526040781,-0.0219329849217,0.999526040781,-0.0219329849217,5.24972872986e-05,-0.00611628252385
2900000000.0,4.25091649165e-05,-0.00633524728709,0.999506397883,-0.0227175192599,0.999506397883,-0.0227175192599,4.25091649168e-05,-0.00633524728709
3000000000.0,3.21727412027e-05,-0.0065542504753,0.999486090498,-0.0235021537111,0.999486090498,-0.0235021537111,3.21727412027e-05,-0.0065542504753
3100000000.0,2.14880351639e-05,-0.00677329185063,0.999465118072,-0.0242868892528,0.999465118072,-0.0242868892528,2.14880351639e-05,-0.00677329185063
3200000000.0,1.04550459279e-05,-0.00699237113397,0.999443480068,-0.025071726805,0.999443480068,-0.025071726805,1.04550459279e-05,-0.00699237113397
3300000000.0,-9.2624485537e-07,-0.00721148800661,0.999421175964,-0.0258566672328,0.999421175964,-0.0258566672328,-9.26244855148e-07,-0.00721148800661
3400000000.0,-1.26558709118e-05,-0.00743064211166,0.99939820525,-0.0266417113485,0.99939820525,-0.0266417113485,-1.26558709116e-05,-0.00743064211166
3500000000.0,-2.47338795295e-05,-0.00764983305538,0.999374567429,-0.0274268599135,0.999374567429,-0.0274268599135,-2.47338795296e-05,-0.00764983305538
3600000000.0,-3.71603299504e-05,-0.00786906040852,0.999350262014,-0.0282121136408,0.999350262014,-0.0282121136408,-3.71603299504e-05,-0.00786906040852
3700000000.0,-4.99352919627e-05,-0.00808832370752,0.999325288527,-0.0289974731961,0.999325288527,-0.0289974731961,-4.99352919627e-05,-0.00808832370752
3800000000.0,-6.3058844654e-05,-0.00830762245564,0.999299646498,-0.0297829392001,0.999299646498,-0.0297829392001,-6.30588446537e-05,-0.00830762245564
3900000000.0,-7.65310753024e-05,-0.00852695612411,0.999273335465,-0.0305685122298,0.999273335465,-0.0305685122298,-7.65310753024e-05,-0.00852695612411
4000000000.0,-9.03520783916e-05,-0.00874632415315,0.999246354974,-0.0313541928203,0.999246354974,-0.0313541928203,-9.03520783914e-05,-0.00874632415315
4100000000.0,-0.000104521954723,-0.00896572595297,0.999218704574,-0.0321399814659,0.999218704574,-0.0321399814659,-0.000104521954723,-0.00896572595297
4200000000.0,-0.000119040810624,-0.00918516090468,0.999190383822,-0.0329258786218,0.999190383822,-0.0329258786218,-0.000119040810624,-0.00918516090468
4300000000.0,-0.000133908757233,-0.00940462836128,0.99916139228,-0.0337118847056,0.99916139228,-0.0337118847056,-0.000133908757232,-0.00940462836128
4400000000.0,-0.000149125909847,-0.00962412764843,0.999131729514,-0.0344980000976,0.999131729514,-0.0344980000976,-0.000149125909847,-0.00962412764843
4500000000.0,-0.000164692387345,-0.00984365806533,0.999101395094,-0.0352842251433,0.999101395094,-0.0352842251433,-0.000164692387346,-0.00984365806533
4600000000.0,-0.000180608311647,-0.0100632188855,0.999070388596,-0.0360705601535,0.999070388596,-0.0360705601535,-0.000180608311647,-0.0100632188855
4700000000.0,-0.000196873807228,-0.0102828093575,0.999038709597,-0.0368570054059,0.999038709597,-0.0368570054059,-0.000196873807228,-0.0102828093575
4800000000.0,-0.000213489000674,-0.0105024287058,0.999006357679,-0.0376435611457,0.999006357679,-0.0376435611457,-0.000213489000675,-0.0105024287058
4900000000.0,-0.000230454020277,-0.0107220761313,0.998973332428,-0.0384302275872,0.998973332428,-0.0384302275872,-0.000230454020277,-0.0107220761313
5000000000.0,-0.000247768995655,-0.0109417508121,0.998939633432,-0.0392170049144,0.998939633432,-0.0392170049144,-0.000247768995655,-0.0109417508121
5100000000.0,-0.000265434057408,-0.0111614519041,0.998905260282,-0.0400038932815,0.998905260282,-0.0400038932815,-0.000265434057408,-0.0111614519041
5200000000.0,-0.000283449336804,-0.0113811785416,0.998870212571,-0.0407908928147,0.998870212571,-0.0407908928147,-0.000283449336804,-0.0113811785416
5300000000.0,-0.000301814965476,-0.0116009298382,0.998834489897,-0.0415780036121,0.998834489897,-0.0415780036121,-0.000301814965476,-0.0116009298382
5400000000.0,-0.000320531075154,-0.0118207048867,0.998798091859,-0.0423652257451,0.998798091859,-0.0423652257451,-0.000320531075154,-0.0118207048867
5500000000.0,-0.00033959779741,-0.0120405027605,0.998761018058,-0.043152559259,0.998761018058,-0.043152559259,-0.00033959779741,-0.0120405027605
5600000000.0,-0.000359015263419,-0.0122603225136,0.998723268098,-0.0439400041736,0.998723268098,-0.0439400041736,-0.000359015263419,-0.0122603225136
5700000000.0,-0.000378783603741,-0.012480163181,0.998684841586,-0.0447275604841,0.998684841586,-0.0447275604841,-0.000378783603741,-0.012480163181
5800000000.0,-0.000398902948112,-0.0127000237799,0.998645738131,-0.0455152281615,0.998645738131,-0.0455152281615,-0.000398902948113,-0.0127000237799
5900000000.0,-0.000419373425258,-0.0129199033093,0.998605957342,-0.0463030071538,0.998605957342,-0.0463030071538,-0.000419373425258,-0.0129199033093
6000000000.0,-0.000440195162702,-0.0131398007512,0.998565498834,-0.047090897386,0.998565498834,-0.047090897386,-0.000440195162702,-0.0131398007512
6100000000.0,-0.000461368286606,-0.0133597150707,0.998524362222,-0.0478788987612,0.998524362222,-0.0478788987612,-0.000461368286606,-0.0133597150707
6200000000.0,-0.000482892921609,-0.0135796452164,0.998482547122,-0.0486670111609,0.998482547122,-0.0486670111609,-0.000482892921609,-0.0135796452164
6300000000.0,-0.000504769190672,-0.013799590121,0.998440053153,-0.0494552344457,0.998440053153,-0.0494552344457,-0.000504769190673,-0.013799590121
6400000000.0,-0.000526997214944,-0.0140195487018,0.998396879938,-0.0502435684558,0.998396879938,-0.0502435684558,-0.000526997214943,-0.0140195487018
6500000000.0,-0.000549577113618,-0.0142395198607,0.998353027099,-0.0510320130117,0.998353027099,-0.0510320130117,-0.000549577113618,-0.0142395198607
6600000000.0,-0.000572509003817,-0.0144595024849,0.998308494262,-0.0518205679143,0.998308494262,-0.0518205679143,-0.000572509003817,-0.0144595024849
6700000000.0,-0.00059579300047,-0.0146794954474,0.998263281054,-0.052609232946,0.998263281054,-0.052609232946,-0.00059579300047,-0.0146794954474
6800000000.0,-0.000619429216194,-0.0148994976069,0.998217387105,-0.0533980078707,0.998217387105,-0.0533980078707,-0.000619429216195,-0.0148994976069
6900000000.0,-0.000643417761196,-0.0151195078088,0.998170812045,-0.0541868924344,0.998170812045,-0.0541868924344,-0.000643417761196,-0.0151195078088
7000000000.0,-0.000667758743164,-0.0153395248848,0.998123555509,-0.0549758863657,0.998123555509,-0.0549758863657,-0.000667758743164,-0.0153395248848
7100000000.0,-0.000692452267174,-0.015559547654,0.998075617131,-0.0557649893763,0.998075617131,-0.0557649893763,-0.000692452267174,-0.015559547654
7200000000.0,-0.000717498435599,-0.0157795749226,0.998026996548,-0.0565542011614,0.998026996548,-0.0565542011614,-0.000717498435599,-0.0157795749226
7300000000.0,-0.000742897348018,-0.0159996054846,0.997977693401,-0.0573435213998,0.997977693401,-0.0573435213998,-0.000742897348018,-0.0159996054846
7400000000.0,-0.000768649101142,-0.0162196381219,0.997927707331,-0.058132949755,0.997927707331,-0.058132949755,-0.000768649101142,-0.0162196381219
7500000000.0,-0.000794753788721,-0.0164396716048,0.99787703798,-0.0589224858747,0.99787703798,-0.0589224858747,-0.000794753788721,-0.0164396716048
7600000000.0,-0.000821211501479,-0.016659704692,0.997825684994,-0.059712129392,0.997825684994,-0.059712129392,-0.000821211501479,-0.016659704692
7700000000.0,-0.000848022327041,-0.0168797361313,0.997773648022,-0.0605018799253,0.997773648022,-0.0605018799253,-0.000848022327041,-0.0168797361313
7800000000.0,-0.000875186349858,-0.0170997646595,0.997720926711,-0.0612917370787,0.997720926711,-0.0612917370787,-0.000875186349858,-0.0170997646595
7900000000.0,-0.000902703651151,-0.0173197890029,0.997667520713,-0.0620817004424,0.997667520713,-0.0620817004424,-0.000902703651151,-0.0173197890029
8000000000.0,-0.000930574308836,-0.0175398078773,0.997613429683,-0.0628717695931,0.997613429683,-0.0628717695931,-0.000930574308836,-0.0175398078773
8100000000.0,-0.000958798397477,-0.0177598199887,0.997558653275,-0.0636619440945,0.997558653275,-0.0636619440945,-0.000958798397477,-0.0177598199887
8200000000.0,-0.000987375988216,-0.017979824033,0.997503191148,-0.064452223497,0.997503191148,-0.064452223497,-0.000987375988216,-0.017979824033
8300000000.0,-0.00101630714873,-0.0181998186969,0.997447042962,-0.0652426073386,0.997447042962,-0.0652426073386,-0.00101630714873,-0.0181998186969
8400000000.0,-0.00104559194316,-0.0184198026574,0.997390208377,-0.0660330951451,0.997390208377,-0.0660330951451,-0.00104559194316,-0.0184198026574
8500000000.0,-0.00107523043209,-0.0186397745826,0.997332687059,-0.0668236864303,0.997332687059,-0.0668236864303,-0.00107523043209,-0.0186397745826
8600000000.0,-0.00110522267247,-0.0188597331317,0.997274478673,-0.067614380696,0.997274478673,-0.067614380696,-0.00110522267247,-0.0188597331317
8700000000.0,-0.00113556871758,-0.0190796769552,0.997215582889,-0.068405177433,0.997215582889,-0.068405177433,-0.00113556871758,-0.0190796769552
8800000000.0,-0.00116626861699,-0.0192996046954,0.997155999375,-0.0691960761207,0.997155999375,-0.0691960761207,-0.00116626861698,-0.0192996046954
8900000000.0,-0.00119732241649,-0.019519514986,0.997095727806,-0.0699870762277,0.997095727806,-0.0699870762277,-0.00119732241649,-0.019519514986
9000000000.0,-0.00122873015811,-0.019739406453,0.997034767855,-0.0707781772118,0.997034767855,-0.0707781772118,-0.00122873015811,-0.019739406453
9100000000.0,-0.00126049188002,-0.0199592777144,0.996973119201,-0.0715693785206,0.996973119201,-0.0715693785206,-0.00126049188002,-0.0199592777144
9200000000.0,-0.00129260761651,-0.0201791273807,0.996910781522,-0.0723606795915,0.996910781522,-0.0723606795915,-0.00129260761651,-0.0201791273807
9300000000.0,-0.00132507739795,-0.0203989540549,0.9968477545,-0.073152079852,0.9968477545,-0.073152079852,-0.00132507739795,-0.0203989540549
9400000000.0,-0.00135790125079,-0.0206187563328,0.996784037819,-0.07394357872,0.996784037819,-0.07394357872,-0.00135790125079,-0.0206187563328
9500000000.0,-0.00139107919746,-0.020838532803,0.996719631164,-0.0747351756039,0.996719631164,-0.0747351756039,-0.00139107919746,-0.020838532803
9600000000.0,-0.00142461125641,-0.0210582820476,0.996654534225,-0.0755268699028,0.996654534225,-0.0755268699028,-0.00142461125641,-0.0210582820476
9700000000.0,-0.00145849744202,-0.0212780026415,0.996588746692,-0.076318661007,0.996588746692,-0.076318661007,-0.00145849744202,-0.0212780026415
9800000000.0,-0.0014927377646,-0.0214976931535,0.996522268257,-0.0771105482978,0.996522268257,-0.0771105482978,-0.0014927377646,-0.0214976931535
9900000000.0,-0.00152733223035,-0.0217173521457,0.996455098616,-0.0779025311481,0.996455098616,-0.0779025311481,-0.00152733223035,-0.0217173521457
10000000000.0,-0.00156228084135,-0.0219369781743,0.996387237466,-0.0786946089222,0.996387237466,-0.0786946089222,-0.00156228084135,-0.0219369781743
