freq (GHz),S11_real,S11_imag,S21_real,S21_imag,S12_real,S12_imag,S22_real,S22_imag
100000000.0,0.000514728648342,-0.00271452807776,0.999440473858,-0.00572913038774,0.999440473858,-0.00572913038774,0.000514728648342,-0.00271452807776
200000000.0,0.000467605584407,-0.00542884313579,0.999372486597,-0.0114581160831,0.999372486597,-0.0114581160831,0.000467605584407,-0.00542884313579
300000000.0,0.000388443559003,-0.00814265551985,0.999265222889,-0.0171867407274,0.999265222889,-0.0171867407274,0.000388443559003,-0.00814265551985
400000000.0,0.000277706907997,-0.0108556521236,0.999118220183,-0.0229147401615,0.999118220183,-0.0229147401615,0.000277706907997,-0.0108556521236
500000000.0,0.000135578648795,-0.0135675059483,0.998931303101,-0.0286418272354,0.998931303101,-0.0286418272354,0.000135578648795,-0.0135675059483
600000000.0,-3.78417166922e-05,-0.0162778803516,0.998704386555,-0.0343676998285,0.998704386555,-0.0343676998285,-3.78417166923e-05,-0.0162778803516
700000000.0,-0.000242487777754,-0.0189864313899,0.998437425977,-0.0400920448904,0.998437425977,-0.0400920448904,-0.000242487777754,-0.0189864313899
800000000.0,-0.000478307704616,-0.021692809309,0.998130399322,-0.0458145408738,0.998130399322,-0.0458145408738,-0.000478307704616,-0.021692809309
900000000.0,-0.000745255927391,-0.024396659583,0.997783299154,-0.0515348593626,0.997783299154,-0.0515348593626,-0.000745255927391,-0.024396659583
1000000000.0,-0.00104328885848,-0.0270976236903,0.997396128717,-0.0572526662453,0.997396128717,-0.0572526662453,-0.00104328885848,-0.0270976236903
1100000000.0,-0.00137236246876,-0.0297953397214,0.996968899803,-0.0629676226063,0.996968899803,-0.0629676226063,-0.00137236246876,-0.0297953397214
1200000000.0,-0.0017324308075,-0.0324894428753,0.996501631525,-0.0686793854339,0.996501631525,-0.0686793854339,-0.0017324308075,-0.0324894428753
1300000000.0,-0.00212344504301,-0.0351795658779,0.995994349576,-0.0743876081995,0.995994349576,-0.0743876081995,-0.00212344504301,-0.0351795658779
1400000000.0,-0.00254535280986,-0.0378653393436,0.995447085773,-0.0800919413476,0.995447085773,-0.0800919413476,-0.00254535280986,-0.0378653393436
1500000000.0,-0.00299809774646,-0.0405463920952,0.994859877757,-0.0857920327172,0.994859877757,-0.0857920327172,-0.00299809774646,-0.0405463920952
1600000000.0,-0.00348161915645,-0.0432223514514,0.994232768808,-0.0914875279132,0.994232768808,-0.0914875279132,-0.00348161915645,-0.0432223514514
1700000000.0,-0.00399585175405,-0.0458928434891,0.993565807718,-0.0971780706383,0.993565807718,-0.0971780706383,-0.00399585175405,-0.0458928434891
1800000000.0,-0.00454072546822,-0.0485574932862,0.992859048709,-0.102863302993,0.992859048709,-0.102863302993,-0.00454072546822,-0.0485574932862
1900000000.0,-0.0051161652895,-0.0512159251478,0.992112551375,-0.108542865754,0.992112551375,-0.108542865754,-0.0051161652895,-0.0512159251478
2000000000.0,-0.00572209114896,-0.0538677628198,0.99132638065,-0.114216398624,0.99132638065,-0.114216398624,-0.00572209114896,-0.0538677628198
2100000000.0,-0.00635841782159,-0.0565126296907,0.99050060678,-0.119883540478,0.99050060678,-0.119883540478,-0.00635841782159,-0.0565126296907
2200000000.0,-0.00702505484918,-0.059150148985,0.989635305304,-0.125543929582,0.989635305304,-0.125543929582,-0.00702505484918,-0.059150148985
2300000000.0,-0.00772190647895,-0.0617799439478,0.98873055704,-0.131197203807,0.98873055704,-0.131197203807,-0.00772190647895,-0.0617799439478
2400000000.0,-0.00844887161517,-0.0644016380232,0.987786448077,-0.136843000834,0.987786448077,-0.136843000834,-0.00844887161517,-0.0644016380232
2500000000.0,-0.00920584378172,-0.0670148550261,0.986803069756,-0.142480958343,0.986803069756,-0.142480958343,-0.00920584378172,-0.0670148550261
2600000000.0,-0.00999271109423,-0.0696192193091,0.985780518667,-0.148110714204,0.985780518667,-0.148110714204,-0.00999271109423,-0.0696192193091
2700000000.0,-0.0108093562404,-0.0722143559244,0.98471889663,-0.153731906648,0.98471889663,-0.153731906648,-0.0108093562404,-0.0722143559244
2800000000.0,-0.0116556564678,-0.0747998907812,0.983618310684,-0.15934417445,0.983618310684,-0.15934417445,-0.0116556564678,-0.0747998907812
2900000000.0,-0.0125314835783,-0.0773754507996,0.982478873068,-0.164947157086,0.982478873068,-0.164947157086,-0.0125314835783,-0.0773754507996
3000000000.0,-0.0134367039283,-0.0799406640597,0.981300701203,-0.170540494902,0.981300701203,-0.170540494902,-0.0134367039283,-0.0799406640597
3100000000.0,-0.014371178435,-0.0824951599489,0.98008391767,-0.176123829265,0.98008391767,-0.176123829265,-0.014371178435,-0.0824951599489
3200000000.0,-0.0153347625873,-0.0850385693045,0.978828650184,-0.181696802723,0.978828650184,-0.181696802723,-0.0153347625873,-0.0850385693045
3300000000.0,-0.0163273064619,-0.0875705245535,0.97753503157,-0.187259059145,0.97753503157,-0.187259059145,-0.0163273064619,-0.0875705245535
3400000000.0,-0.0173486547438,-0.0900906598504,0.976203199729,-0.192810243876,0.976203199729,-0.192810243876,-0.0173486547438,-0.0900906598504
3500000000.0,-0.018398646751,-0.0925986112104,0.974833297606,-0.198350003868,0.974833297606,-0.198350003868,-0.018398646751,-0.0925986112104
3600000000.0,-0.0194771164635,-0.0950940166416,0.973425473156,-0.203877987825,0.973425473156,-0.203877987825,-0.0194771164635,-0.0950940166416
3700000000.0,-0.0205838925558,-0.0975765162733,0.9719798793,-0.209393846334,0.9719798793,-0.209393846334,-0.0205838925558,-0.0975765162733
3800000000.0,-0.0217187984335,-0.100045752482,0.970496673889,-0.214897231996,0.970496673889,-0.214897231996,-0.0217187984335,-0.100045752482
3900000000.0,-0.022881652273,-0.102501370014,0.968976019653,-0.220387799556,0.968976019653,-0.220387799556,-0.022881652273,-0.102501370014
4000000000.0,-0.024072267065,-0.104943016109,0.96741808416,-0.225865206025,0.96741808416,-0.225865206025,-0.024072267065,-0.104943016109
4100000000.0,-0.0252904506609,-0.107370340615,0.965823039758,-0.231329110806,0.965823039758,-0.231329110806,-0.0252904506609,-0.107370340615
4200000000.0,-0.0265360058226,-0.109782996103,0.964191063528,-0.236779175807,0.964191063528,-0.236779175807,-0.0265360058226,-0.109782996103
4300000000.0,-0.0278087302751,-0.112180637987,0.962522337225,-0.242215065562,0.962522337225,-0.242215065562,-0.0278087302751,-0.112180637987
4400000000.0,-0.0291084167621,-0.114562924625,0.960817047222,-0.24763644734,0.960817047222,-0.24763644734,-0.0291084167621,-0.114562924625
4500000000.0,-0.030434853104,-0.116929517434,0.959075384446,-0.253042991259,0.959075384446,-0.253042991259,-0.030434853104,-0.116929517434
4600000000.0,-0.0317878222594,-0.119280080995,0.957297544317,-0.258434370391,0.957297544317,-0.258434370391,-0.0317878222594,-0.119280080995
4700000000.0,-0.0331671023884,-0.121614283149,0.955483726681,-0.263810260866,0.955483726681,-0.263810260866,-0.0331671023884,-0.121614283149
4800000000.0,-0.0345724669185,-0.123931795108,0.953634135742,-0.269170341976,0.953634135742,-0.269170341976,-0.0345724669185,-0.123931795108
4900000000.0,-0.0360036846131,-0.126232291543,0.951748979994,-0.27451429627,0.951748979994,-0.27451429627,-0.0360036846131,-0.126232291543
5000000000.0,-0.037460519642,-0.128515450685,0.949828472145,-0.279841809654,0.949828472145,-0.279841809654,-0.037460519642,-0.128515450685
5100000000.0,-0.0389427316547,-0.130780954416,0.947872829045,-0.28515257148,0.947872829045,-0.28515257148,-0.0389427316547,-0.130780954416
5200000000.0,-0.0404500758547,-0.133028488357,0.945882271611,-0.290446274642,0.945882271611,-0.290446274642,-0.0404500758547,-0.133028488357
5300000000.0,-0.0419823030767,-0.135257741959,0.943857024742,-0.295722615658,0.943857024742,-0.295722615658,-0.0419823030767,-0.135257741959
5400000000.0,-0.0435391598655,-0.137468408584,0.941797317247,-0.300981294756,0.941797317247,-0.300981294756,-0.0435391598655,-0.137468408584
5500000000.0,-0.0451203885562,-0.139660185591,0.939703381759,-0.30622201596,0.939703381759,-0.30622201596,-0.0451203885562,-0.139660185591
5600000000.0,-0.0467257273573,-0.141832774412,0.937575454649,-0.311444487163,0.937575454649,-0.311444487163,-0.0467257273573,-0.141832774412
5700000000.0,-0.0483549104339,-0.143985880631,0.935413775947,-0.316648420207,0.935413775947,-0.316648420207,-0.0483549104339,-0.143985880631
5800000000.0,-0.0500076679937,-0.146119214056,0.933218589249,-0.321833530958,0.933218589249,-0.321833530958,-0.0500076679937,-0.146119214056
5900000000.0,-0.0516837263741,-0.148232488792,0.930990141633,-0.326999539372,0.930990141633,-0.326999539372,-0.0516837263741,-0.148232488792
6000000000.0,-0.0533828081301,-0.150325423311,0.928728683567,-0.332146169566,0.928728683567,-0.332146169566,-0.0533828081301,-0.150325423311
6100000000.0,-0.0551046321247,-0.152397740515,0.92643446882,-0.337273149883,0.92643446882,-0.337273149883,-0.0551046321247,-0.152397740515
6200000000.0,-0.0568489136191,-0.154449167802,0.924107754368,-0.342380212954,0.924107754368,-0.342380212954,-0.0568489136191,-0.154449167802
6300000000.0,-0.0586153643654,-0.156479437126,0.921748800304,-0.347467095756,0.921748800304,-0.347467095756,-0.0586153643654,-0.156479437126
6400000000.0,-0.0604036926995,-0.158488285054,0.919357869739,-0.352533539671,0.919357869739,-0.352533539671,-0.0604036926995,-0.158488285054
6500000000.0,-0.0622136036348,-0.160475452824,0.916935228712,-0.357579290539,0.916935228712,-0.357579290539,-0.0622136036348,-0.160475452824
6600000000.0,-0.0640447989579,-0.162440686394,0.91448114609,-0.362604098708,0.91448114609,-0.362604098708,-0.0640447989579,-0.162440686394
6700000000.0,-0.0658969773238,-0.164383736498,0.911995893474,-0.367607719085,0.911995893474,-0.367607719085,-0.0658969773238,-0.164383736498
6800000000.0,-0.0677698343529,-0.166304358685,0.909479745099,-0.372589911178,0.909479745099,-0.372589911178,-0.0677698343529,-0.166304358685
6900000000.0,-0.0696630627279,-0.168202313371,0.906932977738,-0.377550439141,0.906932977738,-0.377550439141,-0.0696630627279,-0.168202313371
7000000000.0,-0.0715763522915,-0.170077365878,0.904355870601,-0.382489071816,0.904355870601,-0.382489071816,-0.0715763522915,-0.170077365878
7100000000.0,-0.0735093901451,-0.171929286475,0.90174870524,-0.387405582764,0.90174870524,-0.387405582764,-0.0735093901451,-0.171929286475
7200000000.0,-0.0754618607473,-0.173757850412,0.899111765442,-0.392299750308,0.899111765442,-0.392299750308,-0.0754618607473,-0.173757850412
7300000000.0,-0.0774334460128,-0.175562837958,0.896445337137,-0.397171357558,0.896445337137,-0.397171357558,-0.0774334460128,-0.175562837958
7400000000.0,-0.079423825412,-0.177344034428,0.893749708291,-0.402020192444,0.893749708291,-0.402020192444,-0.079423825412,-0.177344034428
7500000000.0,-0.0814326760708,-0.179101230218,0.89102516881,-0.406846047741,0.89102516881,-0.406846047741,-0.0814326760708,-0.179101230218
7600000000.0,-0.0834596728697,-0.180834220825,0.888272010437,-0.411648721094,0.888272010437,-0.411648721094,-0.0834596728697,-0.180834220825
7700000000.0,-0.0855044885442,-0.182542806878,0.885490526651,-0.416428015038,0.885490526651,-0.416428015038,-0.0855044885442,-0.182542806878
7800000000.0,-0.0875667937844,-0.184226794154,0.882681012569,-0.421183737018,0.882681012569,-0.421183737018,-0.0875667937844,-0.184226794154
7900000000.0,-0.0896462573347,-0.185885993596,0.879843764843,-0.425915699405,0.879843764843,-0.425915699405,-0.0896462573347,-0.185885993596
8000000000.0,-0.0917425460936,-0.187520221337,0.876979081556,-0.430623719508,0.876979081556,-0.430623719508,-0.0917425460936,-0.187520221337
8100000000.0,-0.093855325213,-0.189129298707,0.874087262132,-0.435307619589,0.874087262132,-0.435307619589,-0.093855325213,-0.189129298707
8200000000.0,-0.0959842581972,-0.190713052246,0.871168607223,-0.439967226865,0.871168607223,-0.439967226865,-0.0959842581972,-0.190713052246
8300000000.0,-0.0981290070025,-0.192271313716,0.868223418619,-0.444602373523,0.868223418619,-0.444602373523,-0.0981290070025,-0.192271313716
8400000000.0,-0.100289232135,-0.193803920105,0.865251999143,-0.449212896715,0.865251999143,-0.449212896715,-0.100289232135,-0.193803920105
8500000000.0,-0.102464592748,-0.195310713634,0.862254652556,-0.453798638564,0.862254652556,-0.453798638564,-0.102464592748,-0.195310713634
8600000000.0,-0.104654746742,-0.196791541756,0.859231683456,-0.458359446164,0.859231683456,-0.458359446164,-0.104654746742,-0.196791541756
8700000000.0,-0.10685935086,-0.198246257161,0.856183397178,-0.462895171573,0.856183397178,-0.462895171573,-0.10685935086,-0.198246257161
8800000000.0,-0.109078060783,-0.199674717768,0.853110099703,-0.467405671809,0.853110099703,-0.467405671809,-0.109078060783,-0.199674717768
8900000000.0,-0.111310531227,-0.201076786726,0.850012097554,-0.471890808845,0.850012097554,-0.471890808845,-0.111310531227,-0.201076786726
9000000000.0,-0.113556416039,-0.202452332404,0.846889697706,-0.476350449593,0.846889697706,-0.476350449593,-0.113556416039,-0.202452332404
9100000000.0,-0.115815368291,-0.203801228384,0.843743207487,-0.480784465896,0.843743207487,-0.480784465896,-0.115815368291,-0.203801228384
9200000000.0,-0.118087040371,-0.205123353449,0.840572934486,-0.485192734513,0.840572934486,-0.485192734513,-0.118087040371,-0.205123353449
9300000000.0,-0.120371084077,-0.206418591572,0.837379186457,-0.489575137101,0.837379186457,-0.489575137101,-0.120371084077,-0.206418591572
9400000000.0,-0.122667150713,-0.2076868319,0.834162271229,-0.493931560199,0.834162271229,-0.493931560199,-0.122667150713,-0.2076868319
9500000000.0,-0.124974891172,-0.208927968739,0.830922496611,-0.498261895203,0.830922496611,-0.498261895203,-0.124974891172,-0.208927968739
9600000000.0,-0.127293956032,-0.210141901533,0.827660170305,-0.502566038349,0.827660170305,-0.502566038349,-0.127293956032,-0.210141901533
9700000000.0,-0.129623995642,-0.211328534846,0.824375599816,-0.506843890684,0.824375599816,-0.506843890684,-0.129623995642,-0.211328534846
9800000000.0,-0.131964660213,-0.212487778338,0.821069092358,-0.511095358042,0.821069092358,-0.511095358042,-0.131964660213,-0.212487778338
9900000000.0,-0.134315599898,-0.213619546742,0.817740954773,-0.515320351014,0.817740954773,-0.515320351014,-0.134315599898,-0.213619546742
10000000000.0,-0.136676464885,-0.214723759839,0.814391493443,-0.519518784921,0.814391493443,-0.519518784921,-0.136676464885,-0.214723759839
