freq (GHz),S11_real,S11_imag,S21_real,S21_imag,S12_real,S12_imag,S22_real,S22_imag
100000000.0,1.12535899175e-05,-0.00281060516567,0.999966006266,-0.00286733060076,0.999966006266,-0.00286733060076,1.12535899179e-05,-0.00281060516567
200000000.0,-1.55788919325e-05,-0.00562103849062,0.999938861192,-0.00573449083578,0.999938861192,-0.00573449083578,-1.55788919327e-05,-0.00562103849062
300000000.0,-5.85647953205e-05,-0.00843116155153,0.999895637714,-0.00860134307889,0.999895637714,-0.00860134307889,-5.85647953205e-05,-0.00843116155153
400000000.0,-0.000117680284597,-0.0112408363083,0.999836320707,-0.0114677499045,0.999836320707,-0.0114677499045,-0.000117680284597,-0.0112408363083
500000000.0,-0.000192911967528,-0.0140499249755,0.999760908624,-0.0143335740524,0.999760908624,-0.0143335740524,-0.000192911967528,-0.0140499249755
600000000.0,-0.000284248567023,-0.0168582899675,0.999669405159,-0.017198678405,0.999669405159,-0.017198678405,-0.000284248567023,-0.0168582899675
700000000.0,-0.000391678808355,-0.0196657938946,0.999561817125,-0.0200629259991,0.999561817125,-0.0200629259991,-0.000391678808355,-0.0196657938946
800000000.0,-0.000515190653306,-0.0224722995627,0.999438153683,-0.0229261800349,0.999438153683,-0.0229261800349,-0.000515190653306,-0.0224722995627
900000000.0,-0.000654770960756,-0.0252776699875,0.999298425996,-0.0257883038962,0.999298425996,-0.0257883038962,-0.000654770960756,-0.0252776699875
1000000000.0,-0.000810405317451,-0.0280817684046,0.999142647052,-0.0286491611653,0.999142647052,-0.0286491611653,-0.000810405317451,-0.0280817684046
1100000000.0,-0.000982077945355,-0.0308844582886,0.998970831565,-0.0315086156447,0.998970831565,-0.0315086156447,-0.000982077945355,-0.0308844582886
1200000000.0,-0.00116977164867,-0.0336856033662,0.998782995912,-0.0343665313732,0.998782995912,-0.0343665313732,-0.00116977164867,-0.0336856033662
1300000000.0,-0.00137346778258,-0.0364850676374,0.998579158094,-0.0372227726483,0.998579158094,-0.0372227726483,-0.00137346778258,-0.0364850676374
1400000000.0,-0.00159314623416,-0.0392827153935,0.998359337709,-0.0400772040463,0.998359337709,-0.0400772040463,-0.00159314623416,-0.0392827153935
1500000000.0,-0.00182878541163,-0.0420784112363,0.998123555927,-0.0429296904421,0.998123555927,-0.0429296904421,-0.00182878541163,-0.0420784112363
1600000000.0,-0.00208036223841,-0.0448720200974,0.997871835477,-0.0457800970304,0.997871835477,-0.0457800970304,-0.00208036223841,-0.0448720200974
1700000000.0,-0.00234785215067,-0.047663407257,0.997604200632,-0.0486282893444,0.997604200632,-0.0486282893444,-0.00234785215067,-0.047663407257
1800000000.0,-0.00263122909774,-0.0504524383669,0.997320677198,-0.0514741332804,0.997320677198,-0.0514741332804,-0.00263122909774,-0.0504524383669
1900000000.0,-0.00293046554368,-0.0532389794665,0.997021292501,-0.0543174951137,0.997021292501,-0.0543174951137,-0.00293046554368,-0.0532389794665
2000000000.0,-0.00324553247096,-0.0560228970064,0.996706075378,-0.0571582415232,0.996706075378,-0.0571582415232,-0.00324553247096,-0.0560228970064
2100000000.0,-0.00357639938458,-0.0588040578648,0.996375056169,-0.0599962396082,0.996375056169,-0.0599962396082,-0.00357639938458,-0.0588040578648
2200000000.0,-0.00392303431764,-0.0615823293708,0.996028266704,-0.0628313569119,0.996028266704,-0.0628313569119,-0.00392303431764,-0.0615823293708
2300000000.0,-0.00428540383731,-0.0643575793221,0.995665740297,-0.0656634614399,0.995665740297,-0.0656634614399,-0.00428540383731,-0.0643575793221
2400000000.0,-0.00466347305161,-0.0671296760054,0.995287511735,-0.0684924216807,0.995287511735,-0.0684924216807,-0.00466347305161,-0.0671296760054
2500000000.0,-0.00505720561671,-0.0698984882162,0.994893617269,-0.0713181066255,0.994893617269,-0.0713181066255,-0.00505720561671,-0.0698984882162
2600000000.0,-0.00546656374485,-0.0726638852788,0.994484094603,-0.074140385789,0.994484094603,-0.074140385789,-0.00546656374485,-0.0726638852788
2700000000.0,-0.00589150821256,-0.0754257370648,0.994058982887,-0.0769591292282,0.994058982887,-0.0769591292282,-0.00589150821256,-0.0754257370648
2800000000.0,-0.00633199836942,-0.0781839140132,0.993618322705,-0.0797742075617,0.993618322705,-0.0797742075617,-0.00633199836942,-0.0781839140132
2900000000.0,-0.00678799214733,-0.0809382871493,0.993162156065,-0.0825854919905,0.993162156065,-0.0825854919905,-0.00678799214733,-0.0809382871493
3000000000.0,-0.00725944606995,-0.0836887281036,0.99269052639,-0.0853928543155,0.99269052639,-0.0853928543155,-0.00725944606995,-0.0836887281036
3100000000.0,-0.00774631526272,-0.086435109131,0.992203478505,-0.0881961669579,0.992203478505,-0.0881961669579,-0.00774631526272,-0.086435109131
3200000000.0,-0.00824855346306,-0.0891773031289,0.991701058628,-0.0909953029768,0.991701058628,-0.0909953029768,-0.00824855346306,-0.0891773031289
3300000000.0,-0.00876611303116,-0.0919151836568,0.991183314358,-0.0937901360896,0.991183314358,-0.0937901360896,-0.00876611303116,-0.0919151836568
3400000000.0,-0.00929894496065,-0.0946486249524,0.990650294666,-0.0965805406878,0.990650294666,-0.0965805406878,-0.00929894496065,-0.0946486249524
3500000000.0,-0.00984699889025,-0.0973775019523,0.990102049877,-0.0993663918577,0.990102049877,-0.0993663918577,-0.00984699889025,-0.0973775019523
3600000000.0,-0.0104102231151,-0.100101690308,0.989538631667,-0.102147565398,0.989538631667,-0.102147565398,-0.0104102231151,-0.100101690308
3700000000.0,-0.0109885645988,-0.102821066405,0.988960093042,-0.104923937835,0.988960093042,-0.104923937835,-0.0109885645988,-0.102821066405
3800000000.0,-0.0115819689853,-0.105535507378,0.988366488332,-0.107695386443,0.988366488332,-0.107695386443,-0.0115819689853,-0.105535507378
3900000000.0,-0.012190380612,-0.108244891131,0.987757873177,-0.110461789262,0.987757873177,-0.110461789262,-0.012190380612,-0.108244891131
4000000000.0,-0.0128137425219,-0.110949096351,0.987134304509,-0.113223025112,0.987134304509,-0.113223025112,-0.0128137425219,-0.110949096351
4100000000.0,-0.0134519964767,-0.113648002529,0.986495840546,-0.115978973611,0.986495840546,-0.115978973611,-0.0134519964767,-0.113648002529
4200000000.0,-0.0141050829705,-0.11634148997,0.985842540776,-0.118729515194,0.985842540776,-0.118729515194,-0.0141050829705,-0.11634148997
4300000000.0,-0.014772941243,-0.119029439818,0.985174465939,-0.121474531124,0.985174465939,-0.121474531124,-0.014772941243,-0.119029439818
4400000000.0,-0.0154555092933,-0.121711734063,0.984491678021,-0.124213903513,0.984491678021,-0.124213903513,-0.0154555092933,-0.121711734063
4500000000.0,-0.0161527238943,-0.124388255564,0.983794240232,-0.126947515336,0.983794240232,-0.126947515336,-0.0161527238943,-0.124388255564
4600000000.0,-0.0168645206063,-0.127058888058,0.983082216998,-0.129675250446,0.983082216998,-0.129675250446,-0.0168645206063,-0.127058888058
4700000000.0,-0.0175908337924,-0.129723516181,0.982355673942,-0.132396993589,0.982355673942,-0.132396993589,-0.0175908337924,-0.129723516181
4800000000.0,-0.0183315966324,-0.132382025479,0.98161467787,-0.135112630422,0.98161467787,-0.135112630422,-0.0183315966324,-0.132382025479
4900000000.0,-0.0190867411382,-0.135034302426,0.98085929676,-0.137822047523,0.98085929676,-0.137822047523,-0.0190867411382,-0.135034302426
5000000000.0,-0.0198561981692,-0.137680234432,0.980089599739,-0.140525132408,0.980089599739,-0.140525132408,-0.0198561981692,-0.137680234432
5100000000.0,-0.020639897447,-0.140319709866,0.979305657077,-0.143221773545,0.979305657077,-0.143221773545,-0.020639897447,-0.140319709866
5200000000.0,-0.0214377675716,-0.142952618062,0.978507540162,-0.145911860369,0.978507540162,-0.145911860369,-0.0214377675716,-0.142952618062
5300000000.0,-0.0222497360369,-0.145578849337,0.977695321491,-0.148595283293,0.977695321491,-0.148595283293,-0.0222497360369,-0.145578849337
5400000000.0,-0.0230757292463,-0.148198295002,0.976869074652,-0.151271933721,0.976869074652,-0.151271933721,-0.0230757292463,-0.148198295002
5500000000.0,-0.0239156725299,-0.150810847375,0.976028874307,-0.153941704065,0.976028874307,-0.153941704065,-0.0239156725299,-0.150810847375
5600000000.0,-0.0247694901595,-0.153416399796,0.975174796175,-0.156604487753,0.975174796175,-0.156604487753,-0.0247694901595,-0.153416399796
5700000000.0,-0.0256371053659,-0.156014846636,0.974306917017,-0.159260179245,0.974306917017,-0.159260179245,-0.0256371053659,-0.156014846636
5800000000.0,-0.0265184403554,-0.15860608331,0.973425314621,-0.161908674041,0.973425314621,-0.161908674041,-0.0265184403554,-0.15860608331
5900000000.0,-0.0274134163265,-0.161190006291,0.97253006778,-0.164549868697,0.97253006778,-0.164549868697,-0.0274134163265,-0.161190006291
6000000000.0,-0.0283219534866,-0.163766513117,0.971621256282,-0.167183660832,0.971621256282,-0.167183660832,-0.0283219534866,-0.163766513117
6100000000.0,-0.0292439710695,-0.166335502406,0.970698960884,-0.169809949144,0.970698960884,-0.169809949144,-0.0292439710695,-0.166335502406
6200000000.0,-0.0301793873523,-0.168896873865,0.969763263306,-0.172428633417,0.969763263306,-0.172428633417,-0.0301793873523,-0.168896873865
6300000000.0,-0.031128119673,-0.171450528299,0.968814246202,-0.175039614532,0.968814246202,-0.175039614532,-0.031128119673,-0.171450528299
6400000000.0,-0.0320900844474,-0.173996367625,0.967851993151,-0.17764279448,0.967851993151,-0.17764279448,-0.0320900844474,-0.173996367625
6500000000.0,-0.0330651971877,-0.176534294878,0.966876588636,-0.180238076366,0.966876588636,-0.180238076366,-0.0330651971877,-0.176534294878
6600000000.0,-0.0340533725187,-0.179064214223,0.965888118027,-0.182825364426,0.965888118027,-0.182825364426,-0.0340533725187,-0.179064214223
6700000000.0,-0.0350545241971,-0.18158603096,0.964886667563,-0.185404564029,0.964886667563,-0.185404564029,-0.0350545241971,-0.18158603096
6800000000.0,-0.0360685651282,-0.18409965154,0.963872324333,-0.187975581692,0.963872324333,-0.187975581692,-0.0360685651282,-0.18409965154
6900000000.0,-0.0370954073845,-0.186604983567,0.96284517626,-0.190538325082,0.96284517626,-0.190538325082,-0.0370954073845,-0.186604983567
7000000000.0,-0.0381349622236,-0.189101935809,0.961805312083,-0.193092703032,0.961805312083,-0.193092703032,-0.0381349622236,-0.189101935809
7100000000.0,-0.0391871401059,-0.191590418204,0.960752821337,-0.195638625541,0.960752821337,-0.195638625541,-0.0391871401059,-0.191590418204
7200000000.0,-0.0402518507135,-0.194070341872,0.959687794336,-0.198176003789,0.959687794336,-0.198176003789,-0.0402518507135,-0.194070341872
7300000000.0,-0.0413290029679,-0.196541619115,0.958610322154,-0.200704750136,0.958610322154,-0.200704750136,-0.0413290029679,-0.196541619115
7400000000.0,-0.0424185050484,-0.199004163432,0.957520496608,-0.203224778137,0.957520496608,-0.203224778137,-0.0424185050484,-0.199004163432
7500000000.0,-0.0435202644106,-0.20145788952,0.956418410239,-0.205736002545,0.956418410239,-0.205736002545,-0.0435202644106,-0.20145788952
7600000000.0,-0.0446341878046,-0.20390271328,0.955304156294,-0.208238339316,0.955304156294,-0.208238339316,-0.0446341878046,-0.20390271328
7700000000.0,-0.0457601812935,-0.206338551828,0.954177828705,-0.210731705615,0.954177828705,-0.210731705615,-0.0457601812935,-0.206338551828
7800000000.0,-0.0468981502717,-0.208765323495,0.953039522075,-0.213216019826,0.953039522075,-0.213216019826,-0.0468981502717,-0.208765323495
7900000000.0,-0.0480479994838,-0.211182947834,0.951889331656,-0.215691201552,0.951889331656,-0.215691201552,-0.0480479994838,-0.211182947834
8000000000.0,-0.0492096330424,-0.213591345629,0.950727353333,-0.218157171624,0.950727353333,-0.218157171624,-0.0492096330424,-0.213591345629
8100000000.0,-0.0503829544473,-0.215990438894,0.949553683602,-0.220613852101,0.949553683602,-0.220613852101,-0.0503829544473,-0.215990438894
8200000000.0,-0.0515678666037,-0.218380150878,0.948368419555,-0.223061166281,0.948368419555,-0.223061166281,-0.0515678666037,-0.218380150878
8300000000.0,-0.0527642718405,-0.220760406074,0.947171658861,-0.225499038697,0.947171658861,-0.225499038697,-0.0527642718405,-0.220760406074
8400000000.0,-0.0539720719291,-0.223131130216,0.945963499744,-0.22792739513,0.945963499744,-0.22792739513,-0.0539720719291,-0.223131130216
8500000000.0,-0.0551911681018,-0.225492250289,0.94474404097,-0.230346162603,0.94474404097,-0.230346162603,-0.0551911681018,-0.225492250289
8600000000.0,-0.0564214610702,-0.227843694527,0.943513381825,-0.232755269391,0.943513381825,-0.232755269391,-0.0564214610702,-0.227843694527
8700000000.0,-0.0576628510437,-0.230185392417,0.942271622097,-0.235154645021,0.942271622097,-0.235154645021,-0.0576628510437,-0.230185392417
8800000000.0,-0.0589152377479,-0.232517274703,0.941018862056,-0.237544220274,0.941018862056,-0.237544220274,-0.0589152377479,-0.232517274703
8900000000.0,-0.060178520443,-0.234839273387,0.939755202441,-0.239923927189,0.939755202441,-0.239923927189,-0.060178520443,-0.234839273387
9000000000.0,-0.0614525979422,-0.237151321731,0.938480744435,-0.242293699063,0.938480744435,-0.242293699063,-0.0614525979422,-0.237151321731
9100000000.0,-0.0627373686297,-0.239453354259,0.937195589652,-0.244653470454,0.937195589652,-0.244653470454,-0.0627373686297,-0.239453354259
9200000000.0,-0.0640327304794,-0.241745306757,0.935899840116,-0.247003177183,0.935899840116,-0.247003177183,-0.0640327304794,-0.241745306757
9300000000.0,-0.0653385810724,-0.244027116276,0.934593598243,-0.249342756331,0.934593598243,-0.249342756331,-0.0653385810724,-0.244027116276
9400000000.0,-0.0666548176162,-0.24629872113,0.933276966822,-0.251672146245,0.933276966822,-0.251672146245,-0.0666548176162,-0.24629872113
9500000000.0,-0.0679813369614,-0.2485600609,0.931950049002,-0.253991286535,0.931950049002,-0.253991286535,-0.0679813369614,-0.2485600609
9600000000.0,-0.0693180356208,-0.250811076431,0.930612948266,-0.256300118074,0.930612948266,-0.256300118074,-0.0693180356208,-0.250811076431
9700000000.0,-0.0706648097868,-0.253051709832,0.929265768421,-0.258598583001,0.929265768421,-0.258598583001,-0.0706648097868,-0.253051709832
9800000000.0,-0.0720215553492,-0.255281904478,0.927908613573,-0.260886624716,0.927908613573,-0.260886624716,-0.0720215553492,-0.255281904478
9900000000.0,-0.0733881679132,-0.257501605006,0.926541588116,-0.263164187883,0.926541588116,-0.263164187883,-0.0733881679132,-0.257501605006
10000000000.0,-0.0747645428166,-0.259710757317,0.92516479671,-0.265431218429,0.92516479671,-0.265431218429,-0.0747645428166,-0.259710757317
