freq (GHz),S11_real,S11_imag,S21_real,S21_imag,S12_real,S12_imag,S22_real,S22_imag
100000000.0,0.023145027596,0.00206847027184,0.976852870491,-0.00288722114479,0.976852870491,-0.00288722114479,0.023145027596,0.00206847027184
200000000.0,0.0233122592643,0.00413534158215,0.976683861167,-0.00577285083767,0.976683861167,-0.00577285083767,0.0233122592643,0.00413534158215
300000000.0,0.0234512974862,0.00620114320988,0.976542369444,-0.00865742330865,0.976542369444,-0.00865742330865,0.0234512974862,0.00620114320988
400000000.0,0.0235818742185,0.00826600251227,0.976408663266,-0.0115410699447,0.976408663266,-0.0115410699447,0.0235818742185,0.00826600251227
500000000.0,0.0237116013184,0.0103299532859,0.976275130676,-0.0144238281083,0.976275130676,-0.0144238281083,0.0237116013184,0.0103299532859
600000000.0,0.0238443655646,0.0123929878918,0.976137884788,-0.0173056934236,0.976137884788,-0.0173056934236,0.0238443655646,0.0123929878918
700000000.0,0.0239824646146,0.0144550759888,0.975994627832,-0.0201866385908,0.975994627832,-0.0201866385908,0.0239824646146,0.0144550759888
800000000.0,0.0241273871743,0.0165161732274,0.97584387098,-0.0230666221297,0.97584387098,-0.0230666221297,0.0241273871743,0.0165161732274
900000000.0,0.0242801606267,0.0185762259239,0.975684586721,-0.0259455930858,0.975684586721,-0.0259455930858,0.0242801606267,0.0185762259239
1000000000.0,0.0244415273646,0.0206351738302,0.975516032525,-0.0288234938226,0.975516032525,-0.0288234938226,0.0244415273646,0.0206351738302
1100000000.0,0.0246120428808,0.0226929518957,0.975337652757,-0.0317002618005,0.975337652757,-0.0317002618005,0.0246120428808,0.0226929518957
1200000000.0,0.0247921342571,0.0247494914497,0.975149020183,-0.0345758307716,0.975149020183,-0.0345758307716,0.0247921342571,0.0247494914497
1300000000.0,0.0249821369875,0.0268047210286,0.97494979915,-0.0374501316173,0.97494979915,-0.0374501316173,0.0249821369875,0.0268047210286
1400000000.0,0.0251823191989,0.0288585669761,0.974739721365,-0.0403230929564,0.974739721365,-0.0403230929564,0.0251823191989,0.0288585669761
1500000000.0,0.0253928981662,0.0309109538902,0.974518569379,-0.0431946415985,0.974518569379,-0.0431946415985,0.0253928981662,0.0309109538902
1600000000.0,0.0256140519196,0.032961804965,0.974286164981,-0.0460647028918,0.974286164981,-0.0460647028918,0.0256140519196,0.032961804965
1700000000.0,0.0258459276153,0.0350110422573,0.974042360825,-0.0489332009941,0.974042360825,-0.0489332009941,0.0258459276153,0.0350110422573
1800000000.0,0.0260886477069,0.0370585868988,0.973787034263,-0.0518000590889,0.973787034263,-0.0518000590889,0.0260886477069,0.0370585868988
1900000000.0,0.0263423145851,0.0391043592675,0.973520082701,-0.0546651995601,0.973520082701,-0.0546651995601,0.0263423145851,0.0391043592675
2000000000.0,0.0266070141256,0.0411482791279,0.973241420054,-0.0575285441357,0.973241420054,-0.0575285441357,0.0266070141256,0.0411482791279
2100000000.0,0.0268828184428,0.043190265748,0.972950973991,-0.0603900140071,0.972950973991,-0.0603900140071,0.0268828184428,0.043190265748
2200000000.0,0.0271697880567,0.0452302379973,0.972648683769,-0.0632495299296,0.972648683769,-0.0632495299296,0.0271697880567,0.0452302379973
2300000000.0,0.0274679736186,0.0472681144306,0.972334498506,-0.066107012308,0.972334498506,-0.066107012308,0.0274679736186,0.0472681144306
2400000000.0,0.0277774173008,0.0493038133593,0.972008375793,-0.06896238127,0.972008375793,-0.06896238127,0.0277774173008,0.0493038133593
2500000000.0,0.0280981539268,0.0513372529141,0.971670280564,-0.0718155567307,0.971670280564,-0.0718155567307,0.0280981539268,0.0513372529141
2600000000.0,0.028430211899,0.0533683510991,0.971320184166,-0.074666458448,0.971320184166,-0.074666458448,0.028430211899,0.0533683510991
2700000000.0,0.0287736139662,0.0553970258401,0.970958063594,-0.0775150060721,0.970958063594,-0.0775150060721,0.0287736139662,0.0553970258401
2800000000.0,0.0291283778647,0.0574231950272,0.970583900849,-0.0803611191898,0.970583900849,-0.0803611191898,0.0291283778647,0.0574231950272
2900000000.0,0.0294945168559,0.0594467765527,0.970197682402,-0.0832047173635,0.970197682402,-0.0832047173635,0.0294945168559,0.0594467765527
3000000000.0,0.0298720401818,0.0614676883463,0.969799398734,-0.0860457201672,0.969799398734,-0.0860457201672,0.0298720401818,0.0614676883463
3100000000.0,0.0302609534523,0.0634858484057,0.969389043954,-0.0888840472183,0.969389043954,-0.0888840472183,0.0302609534523,0.0634858484057
3200000000.0,0.0306612589768,0.0655011748255,0.968966615467,-0.0917196182072,0.968966615467,-0.0917196182072,0.0306612589768,0.0655011748255
3300000000.0,0.0310729560499,0.0675135858232,0.968532113683,-0.0945523529246,0.968532113683,-0.0945523529246,0.0310729560499,0.0675135858232
3400000000.0,0.0314960411985,0.0695229997635,0.968085541777,-0.0973821712861,0.968085541777,-0.0973821712861,0.0314960411985,0.0695229997635
3500000000.0,0.0319305083967,0.0715293351807,0.967626905469,-0.100208993355,0.967626905469,-0.100208993355,0.0319305083967,0.0715293351807
3600000000.0,0.0323763492537,0.073532510799,0.967156212839,-0.103032739366,0.967156212839,-0.103032739366,0.0323763492537,0.073532510799
3700000000.0,0.0328335531784,0.075532445553,0.96667347416,-0.10585332974,0.96667347416,-0.10585332974,0.0328335531784,0.075532445553
3800000000.0,0.0333021075254,0.0775290586047,0.966178701756,-0.108670685111,0.966178701756,-0.108670685111,0.0333021075254,0.0775290586047
3900000000.0,0.033781997723,0.0795222693619,0.965671909869,-0.111484726335,0.965671909869,-0.111484726335,0.033781997723,0.0795222693619
4000000000.0,0.0342732073879,0.0815119974935,0.965153114549,-0.114295374515,0.965153114549,-0.114295374515,0.0342732073879,0.0815119974935
4100000000.0,0.0347757184272,0.0834981629453,0.964622333549,-0.117102551011,0.964622333549,-0.117102551011,0.0347757184272,0.0834981629453
4200000000.0,0.0352895111302,0.0854806859549,0.964079586234,-0.119906177457,0.964079586234,-0.119906177457,0.0352895111302,0.0854806859549
4300000000.0,0.0358145642499,0.0874594870651,0.963524893501,-0.122706175776,0.963524893501,-0.122706175776,0.0358145642499,0.0874594870651
4400000000.0,0.0363508550778,0.0894344871374,0.962958277702,-0.125502468194,0.962958277702,-0.125502468194,0.0363508550778,0.0894344871374
4500000000.0,0.0368983595106,0.0914056073648,0.962379762578,-0.128294977252,0.962379762578,-0.128294977252,0.0368983595106,0.0914056073648
4600000000.0,0.0374570521117,0.0933727692842,0.961789373198,-0.131083625818,0.961789373198,-0.131083625818,0.0374570521117,0.0933727692842
4700000000.0,0.0380269061662,0.0953358947877,0.961187135906,-0.133868337102,0.961187135906,-0.133868337102,0.0380269061662,0.0953358947877
4800000000.0,0.0386078937323,0.0972949061341,0.960573078265,-0.136649034665,0.960573078265,-0.136649034665,0.0386078937323,0.0972949061341
4900000000.0,0.0391999856875,0.0992497259598,0.959947229015,-0.139425642431,0.959947229015,-0.139425642431,0.0391999856875,0.0992497259598
5000000000.0,0.039803151772,0.101200277289,0.959309618027,-0.142198084698,0.959309618027,-0.142198084698,0.039803151772,0.101200277289
5100000000.0,0.0404173606279,0.103146483545,0.958660276266,-0.144966286147,0.958660276266,-0.144966286147,0.0404173606279,0.103146483545
5200000000.0,0.0410425798365,0.105088268559,0.957999235752,-0.147730171856,0.957999235752,-0.147730171856,0.0410425798365,0.105088268559
5300000000.0,0.0416787759518,0.107025556578,0.957326529527,-0.150489667305,0.957326529527,-0.150489667305,0.0416787759518,0.107025556578
5400000000.0,0.0423259145327,0.108958272277,0.956642191624,-0.153244698388,0.956642191624,-0.153244698388,0.0423259145327,0.108958272277
5500000000.0,0.0429839601727,0.110886340768,0.955946257036,-0.155995191423,0.955946257036,-0.155995191423,0.0429839601727,0.110886340768
5600000000.0,0.0436528765273,0.112809687604,0.955238761688,-0.158741073159,0.955238761688,-0.158741073159,0.0436528765273,0.112809687604
5700000000.0,0.044332626341,0.114728238793,0.954519742412,-0.161482270786,0.954519742412,-0.161482270786,0.044332626341,0.114728238793
5800000000.0,0.0450231714712,0.116641920805,0.953789236921,-0.16421871194,0.953789236921,-0.16421871194,0.0450231714712,0.116641920805
5900000000.0,0.0457244729118,0.118550660575,0.95304728379,-0.166950324719,0.95304728379,-0.166950324719,0.0457244729118,0.118550660575
6000000000.0,0.0464364908154,0.120454385518,0.952293922425,-0.169677037681,0.952293922425,-0.169677037681,0.0464364908154,0.120454385518
6100000000.0,0.0471591845141,0.122353023531,0.951529193053,-0.17239877986,0.951529193053,-0.17239877986,0.0471591845141,0.122353023531
6200000000.0,0.0478925125396,0.124246503003,0.950753136693,-0.175115480768,0.950753136693,-0.175115480768,0.0478925125396,0.124246503003
6300000000.0,0.048636432642,0.126134752822,0.949965795143,-0.177827070406,0.949965795143,-0.177827070406,0.048636432642,0.126134752822
6400000000.0,0.0493909018086,0.128017702379,0.949167210956,-0.180533479267,0.949167210956,-0.180533479267,0.0493909018086,0.128017702379
6500000000.0,0.0501558762808,0.12989528158,0.948357427431,-0.183234638349,0.948357427431,-0.183234638349,0.0501558762808,0.12989528158
6600000000.0,0.0509313115714,0.131767420847,0.947536488586,-0.185930479155,0.947536488586,-0.185930479155,0.0509313115714,0.131767420847
6700000000.0,0.0517171624803,0.133634051129,0.946704439151,-0.188620933704,0.946704439151,-0.188620933704,0.0517171624803,0.133634051129
6800000000.0,0.0525133831108,0.135495103904,0.945861324545,-0.191305934537,0.945861324545,-0.191305934537,0.0525133831108,0.135495103904
6900000000.0,0.053319926884,0.137350511189,0.945007190867,-0.193985414719,0.945007190867,-0.193985414719,0.053319926884,0.137350511189
7000000000.0,0.054136746554,0.139200205543,0.944142084877,-0.196659307851,0.944142084877,-0.196659307851,0.054136746554,0.139200205543
7100000000.0,0.0549637942218,0.141044120073,0.943266053984,-0.199327548072,0.943266053984,-0.199327548072,0.0549637942218,0.141044120073
7200000000.0,0.0558010213494,0.142882188442,0.942379146231,-0.201990070066,0.942379146231,-0.201990070066,0.0558010213494,0.142882188442
7300000000.0,0.0566483787728,0.14471434487,0.941481410283,-0.204646809067,0.941481410283,-0.204646809067,0.0566483787728,0.14471434487
7400000000.0,0.0575058167157,0.146540524145,0.940572895413,-0.207297700865,0.940572895413,-0.207297700865,0.0575058167157,0.146540524145
7500000000.0,0.0583732848018,0.148360661621,0.939653651488,-0.20994268181,0.939653651488,-0.20994268181,0.0583732848018,0.148360661621
7600000000.0,0.0592507320676,0.150174693231,0.938723728961,-0.212581688819,0.938723728961,-0.212581688819,0.0592507320676,0.150174693231
7700000000.0,0.0601381069746,0.151982555483,0.937783178852,-0.215214659378,0.937783178852,-0.215214659378,0.0601381069746,0.151982555483
7800000000.0,0.0610353574215,0.153784185474,0.936832052741,-0.217841531551,0.936832052741,-0.217841531551,0.0610353574215,0.153784185474
7900000000.0,0.0619424307555,0.155579520884,0.935870402756,-0.220462243979,0.935870402756,-0.220462243979,0.0619424307555,0.155579520884
8000000000.0,0.0628592737844,0.157368499992,0.934898281558,-0.22307673589,0.934898281558,-0.22307673589,0.0628592737844,0.157368499992
8100000000.0,0.063785832788,0.15915106167,0.933915742333,-0.225684947101,0.933915742333,-0.225684947101,0.063785832788,0.15915106167
8200000000.0,0.0647220535289,0.160927145393,0.93292283878,-0.228286818019,0.93292283878,-0.228286818019,0.0647220535289,0.160927145393
8300000000.0,0.0656678812638,0.16269669124,0.931919625099,-0.230882289653,0.931919625099,-0.230882289653,0.0656678812638,0.16269669124
8400000000.0,0.0666232607545,0.164459639899,0.930906155981,-0.233471303608,0.930906155981,-0.233471303608,0.0666232607545,0.164459639899
8500000000.0,0.0675881362786,0.166215932674,0.929882486597,-0.236053802098,0.929882486597,-0.236053802098,0.0675881362786,0.166215932674
8600000000.0,0.0685624516399,0.16796551148,0.928848672586,-0.238629727942,0.928848672586,-0.238629727942,0.0685624516399,0.16796551148
8700000000.0,0.0695461501791,0.169708318854,0.927804770049,-0.241199024572,0.927804770049,-0.241199024572,0.0695461501791,0.169708318854
8800000000.0,0.0705391747842,0.171444297958,0.926750835533,-0.243761636037,0.926750835533,-0.243761636037,0.0705391747842,0.171444297958
8900000000.0,0.0715414679007,0.173173392575,0.925686926025,-0.246317507002,0.925686926025,-0.246317507002,0.0715414679007,0.173173392575
9000000000.0,0.0725529715415,0.174895547121,0.924613098937,-0.248866582755,0.924613098937,-0.248866582755,0.0725529715415,0.174895547121
9100000000.0,0.0735736272974,0.176610706642,0.923529412104,-0.251408809207,0.923529412104,-0.251408809207,0.0735736272974,0.176610706642
9200000000.0,0.0746033763467,0.178318816819,0.922435923766,-0.253944132899,0.922435923766,-0.253944132899,0.0746033763467,0.178318816819
9300000000.0,0.0756421594652,0.180019823971,0.921332692562,-0.256472500999,0.921332692562,-0.256472500999,0.0756421594652,0.180019823971
9400000000.0,0.0766899170359,0.181713675053,0.920219777519,-0.25899386131,0.920219777519,-0.25899386131,0.0766899170359,0.181713675053
9500000000.0,0.0777465890588,0.183400317668,0.919097238045,-0.261508162268,0.919097238045,-0.261508162268,0.0777465890588,0.183400317668
9600000000.0,0.0788121151604,0.185079700057,0.917965133916,-0.264015352948,0.917965133916,-0.264015352948,0.0788121151604,0.185079700057
9700000000.0,0.0798864346033,0.186751771112,0.916823525269,-0.266515383065,0.916823525269,-0.266515383065,0.0798864346033,0.186751771112
9800000000.0,0.0809694862956,0.188416480371,0.915672472588,-0.269008202973,0.915672472588,-0.269008202973,0.0809694862956,0.188416480371
9900000000.0,0.0820612088003,0.190073778024,0.914512036703,-0.271493763672,0.914512036703,-0.271493763672,0.0820612088003,0.190073778024
10000000000.0,0.0831615403446,0.19172361491,0.913342278773,-0.273972016807,0.913342278773,-0.273972016807,0.0831615403446,0.19172361491
