freq (GHz),S11_real,S11_imag,S21_real,S21_imag,S12_real,S12_imag,S22_real,S22_imag
100000000.0,0.0175900377171,0.000916501880129,0.982408633894,-0.00121864992983,0.982408633894,-0.00121864992983,0.0175900377171,0.000916501880129
200000000.0,0.0177069515367,0.00183250602593,0.982291299833,-0.00243680510102,0.982291299833,-0.00243680510102,0.0177069515367,0.00183250602593
300000000.0,0.0177951029172,0.00274820977767,0.982202636348,-0.00365466450277,0.982202636348,-0.00365466450277,0.0177951029172,0.00274820977767
400000000.0,0.0178696052499,0.00366367854344,0.982127530036,-0.00487229483094,0.982127530036,-0.00487229483094,0.0178696052499,0.00366367854344
500000000.0,0.0179362969978,0.00457894691282,0.98206014242,-0.0060897317812,0.98206014242,-0.0060897317812,0.0179362969978,0.00457894691282
600000000.0,0.0179981646171,0.00549403578174,0.981997487034,-0.00730699723689,0.981997487034,-0.00730699723689,0.0179981646171,0.00549403578174
700000000.0,0.018056977481,0.00640895851514,0.98193779449,-0.00852410546366,0.98193779449,-0.00852410546366,0.018056977481,0.00640895851513
800000000.0,0.0181138853004,0.00732372381003,0.981879915065,-0.00974106599175,0.981879915065,-0.00974106599175,0.0181138853004,0.00732372381003
900000000.0,0.0181696844393,0.00823833723567,0.981823052379,-0.0109578851688,0.981823052379,-0.0109578851688,0.0181696844393,0.00823833723567
1000000000.0,0.0182249530601,0.00915280214654,0.981766628257,-0.0121745670815,0.981766628257,-0.0121745670815,0.0182249530601,0.00915280214654
1100000000.0,0.0182801263357,0.010067120263,0.981710207509,-0.0133911141431,0.981710207509,-0.0133911141431,0.0182801263357,0.010067120263
1200000000.0,0.0183355413175,0.0109812920602,0.981653453069,-0.0146075274872,0.981653453069,-0.0146075274872,0.0183355413175,0.0109812920602
1300000000.0,0.0183914651952,0.0118953170406,0.98159609773,-0.015823807244,0.98159609773,-0.015823807244,0.0183914651952,0.0118953170406
1400000000.0,0.0184481138941,0.01280919393,0.981537925551,-0.0170399527394,0.981537925551,-0.0170399527394,0.0184481138941,0.01280919393
1500000000.0,0.0185056647608,0.0137229208239,0.981478759166,-0.0182559626446,0.981478759166,-0.0182559626446,0.0185056647608,0.0137229208239
1600000000.0,0.0185642654837,0.0146364952984,0.981418450869,-0.0194718350883,0.981418450869,-0.0194718350883,0.0185642654837,0.0146364952984
1700000000.0,0.0186240405284,0.0155499144966,0.981356876177,-0.0206875677457,0.981356876177,-0.0206875677457,0.0186240405284,0.0155499144966
1800000000.0,0.0186850958848,0.0164631751965,0.98129392908,-0.021903157907,0.98129392908,-0.021903157907,0.0186850958848,0.0164631751965
1900000000.0,0.0187475226369,0.0173762738653,0.981229518474,-0.0231186025343,0.981229518474,-0.0231186025343,0.0187475226369,0.0173762738653
2000000000.0,0.0188113996934,0.0182892067041,0.981163565431,-0.0243338983061,0.981163565431,-0.0243338983061,0.0188113996934,0.0182892067041
2100000000.0,0.0188767959083,0.0192019696835,0.981096001077,-0.0255490416549,0.981096001077,-0.0255490416549,0.0188767959083,0.0192019696835
2200000000.0,0.0189437717493,0.0201145585742,0.981026764922,-0.0267640287985,0.981026764922,-0.0267640287985,0.0189437717493,0.0201145585742
2300000000.0,0.0190123806274,0.0210269689721,0.980955803534,-0.0279788557657,0.980955803534,-0.0279788557657,0.0190123806274,0.0210269689721
2400000000.0,0.0190826699673,0.0219391963197,0.980883069468,-0.0291935184183,0.980883069468,-0.0291935184183,0.0190826699673,0.0219391963197
2500000000.0,0.0191546820778,0.0228512359237,0.980808520391,-0.0304080124701,0.980808520391,-0.0304080124701,0.0191546820778,0.0228512359237
2600000000.0,0.0192284548664,0.0237630829713,0.980732118373,-0.0316223335028,0.980732118373,-0.0316223335028,0.0192284548664,0.0237630829713
2700000000.0,0.0193040224305,0.024674732543,0.980653829295,-0.0328364769799,0.980653829295,-0.0328364769799,0.0193040224305,0.024674732543
2800000000.0,0.0193814155501,0.0255861796245,0.980573622353,-0.034050438259,0.980573622353,-0.034050438259,0.0193814155501,0.0255861796245
2900000000.0,0.0194606621021,0.0264974191164,0.980491469647,-0.0352642126024,0.980491469647,-0.0352642126024,0.0194606621021,0.0264974191164
3000000000.0,0.0195417874095,0.0274084458437,0.980407345828,-0.0364777951858,0.980407345828,-0.0364777951858,0.0195417874095,0.0274084458437
3100000000.0,0.019624814539,0.0283192545633,0.980321227807,-0.0376911811074,0.980321227807,-0.0376911811074,0.019624814539,0.0283192545633
3200000000.0,0.0197097645554,0.0292298399706,0.980233094493,-0.0389043653945,0.980233094493,-0.0389043653945,0.0197097645554,0.0292298399706
3300000000.0,0.0197966567397,0.0301401967063,0.980142926581,-0.04011734301,0.980142926581,-0.04011734301,0.0197966567397,0.0301401967063
3400000000.0,0.0198855087777,0.0310503193612,0.980050706359,-0.0413301088586,0.980050706359,-0.0413301088586,0.0198855087777,0.0310503193612
3500000000.0,0.0199763369243,0.0319602024814,0.979956417547,-0.0425426577914,0.979956417547,-0.0425426577914,0.0199763369243,0.0319602024814
3600000000.0,0.0200691561452,0.0328698405729,0.979860045153,-0.043754984611,0.979860045153,-0.043754984611,0.0200691561452,0.0328698405729
3700000000.0,0.0201639802426,0.033779228105,0.979761575349,-0.0449670840756,0.979761575349,-0.0449670840756,0.0201639802426,0.033779228105
3800000000.0,0.0202608219638,0.0346883595144,0.97966099536,-0.0461789509024,0.97966099536,-0.0461789509024,0.0202608219638,0.0346883595144
3900000000.0,0.0203596930985,0.035597229208,0.979558293371,-0.0473905797717,0.979558293371,-0.0473905797717,0.0203596930985,0.035597229208
4000000000.0,0.0204606045639,0.0365058315662,0.979453458437,-0.0486019653296,0.979453458437,-0.0486019653296,0.0204606045639,0.0365058315662
4100000000.0,0.0205635664802,0.0374141609451,0.979346480411,-0.0498131021907,0.979346480411,-0.0498131021907,0.0205635664802,0.0374141609451
4200000000.0,0.0206685882386,0.0383222116795,0.979237349873,-0.0510239849414,0.979237349873,-0.0510239849414,0.0206685882386,0.0383222116795
4300000000.0,0.0207756785607,0.0392299780847,0.979126058075,-0.0522346081416,0.979126058075,-0.0522346081416,0.0207756785607,0.0392299780847
4400000000.0,0.0208848455528,0.0401374544585,0.979012596882,-0.0534449663271,0.979012596882,-0.0534449663271,0.0208848455528,0.0401374544585
4500000000.0,0.0209960967544,0.0410446350835,0.978896958727,-0.0546550540117,0.978896958727,-0.0546550540117,0.0209960967544,0.0410446350835
4600000000.0,0.021109439181,0.0419515142282,0.978779136565,-0.0558648656893,0.978779136565,-0.0558648656893,0.021109439181,0.0419515142282
4700000000.0,0.0212248793638,0.0428580861493,0.978659123837,-0.057074395835,0.978659123837,-0.057074395835,0.0212248793638,0.0428580861493
4800000000.0,0.0213424233849,0.0437643450924,0.978536914431,-0.0582836389073,0.978536914431,-0.0582836389073,0.0213424233849,0.0437643450924
4900000000.0,0.0214620769095,0.0446702852938,0.978412502654,-0.0594925893491,0.978412502654,-0.0594925893491,0.0214620769095,0.0446702852938
5000000000.0,0.0215838452148,0.0455759009818,0.978285883198,-0.0607012415896,0.978285883198,-0.0607012415896,0.0215838452148,0.0455759009818
5100000000.0,0.0217077332166,0.0464811863776,0.97815705112,-0.061909590045,0.97815705112,-0.061909590045,0.0217077332166,0.0464811863776
5200000000.0,0.0218337454935,0.0473861356964,0.97802600181,-0.0631176291202,0.97802600181,-0.0631176291202,0.0218337454935,0.0473861356964
5300000000.0,0.0219618863088,0.0482907431488,0.977892730975,-0.0643253532095,0.977892730975,-0.0643253532095,0.0219618863088,0.0482907431488
5400000000.0,0.0220921596307,0.049195002941,0.977757234618,-0.0655327566979,0.977757234618,-0.0655327566979,0.0220921596307,0.049195002941
5500000000.0,0.0222245691505,0.0500989092763,0.977619509017,-0.0667398339618,0.977619509017,-0.0667398339618,0.0222245691505,0.0500989092763
5600000000.0,0.0223591183001,0.0510024563558,0.97747955071,-0.0679465793704,0.97747955071,-0.0679465793704,0.0223591183001,0.0510024563558
5700000000.0,0.022495810267,0.0519056383788,0.977337356479,-0.0691529872861,0.977337356479,-0.0691529872861,0.022495810267,0.0519056383788
5800000000.0,0.0226346480088,0.052808449544,0.977192923336,-0.0703590520652,0.977192923336,-0.0703590520652,0.0226346480088,0.052808449544
5900000000.0,0.0227756342667,0.0537108840497,0.97704624851,-0.0715647680591,0.97704624851,-0.0715647680591,0.0227756342667,0.0537108840497
6000000000.0,0.0229187715771,0.0546129360948,0.976897329432,-0.0727701296149,0.976897329432,-0.0727701296149,0.0229187715771,0.0546129360948
6100000000.0,0.0230640622833,0.0555145998793,0.976746163729,-0.0739751310757,0.976746163729,-0.0739751310757,0.0230640622833,0.0555145998793
6200000000.0,0.0232115085461,0.0564158696044,0.976592749209,-0.0751797667817,0.976592749209,-0.0751797667817,0.0232115085461,0.0564158696044
6300000000.0,0.0233611123528,0.0573167394739,0.976437083854,-0.0763840310703,0.976437083854,-0.0763840310703,0.0233611123528,0.0573167394739
6400000000.0,0.0235128755269,0.0582172036939,0.976279165809,-0.0775879182773,0.976279165809,-0.0775879182773,0.0235128755269,0.0582172036939
6500000000.0,0.0236667997358,0.0591172564736,0.976118993375,-0.0787914227367,0.976118993375,-0.0787914227367,0.0236667997358,0.0591172564736
6600000000.0,0.0238228864993,0.0600168920256,0.975956565002,-0.0799945387818,0.975956565002,-0.0799945387818,0.0238228864993,0.0600168920256
6700000000.0,0.023981137196,0.0609161045666,0.975791879278,-0.0811972607453,0.975791879278,-0.0811972607453,0.023981137196,0.0609161045666
6800000000.0,0.0241415530706,0.0618148883174,0.975624934929,-0.0823995829601,0.975624934929,-0.0823995829601,0.0241415530706,0.0618148883174
6900000000.0,0.0243041352401,0.0627132375036,0.975455730804,-0.0836014997592,0.975455730804,-0.0836014997592,0.0243041352401,0.0627132375036
7000000000.0,0.0244688846995,0.0636111463555,0.975284265879,-0.0848030054768,0.975284265879,-0.0848030054768,0.0244688846995,0.0636111463555
7100000000.0,0.0246358023275,0.0645086091091,0.975110539241,-0.086004094448,0.975110539241,-0.086004094448,0.0246358023275,0.0645086091091
7200000000.0,0.0248048888913,0.0654056200059,0.974934550092,-0.0872047610096,0.974934550092,-0.0872047610096,0.0248048888913,0.0654056200059
7300000000.0,0.0249761450519,0.0663021732931,0.97475629774,-0.0884049995004,0.97475629774,-0.0884049995004,0.0249761450519,0.0663021732931
7400000000.0,0.0251495713684,0.0671982632246,0.974575781592,-0.0896048042613,0.974575781592,-0.0896048042613,0.0251495713684,0.0671982632246
7500000000.0,0.0253251683022,0.0680938840603,0.974393001157,-0.0908041696361,0.974393001157,-0.0908041696361,0.0253251683022,0.0680938840603
7600000000.0,0.0255029362209,0.0689890300671,0.974207956033,-0.0920030899711,0.974207956033,-0.0920030899711,0.0255029362209,0.0689890300671
7700000000.0,0.0256828754024,0.0698836955189,0.974020645912,-0.093201559616,0.974020645912,-0.093201559616,0.0256828754024,0.0698836955189
7800000000.0,0.025864986038,0.0707778746967,0.97383107057,-0.0943995729241,0.97383107057,-0.0943995729241,0.025864986038,0.0707778746967
7900000000.0,0.0260492682362,0.071671561889,0.973639229865,-0.0955971242521,0.973639229865,-0.0955971242521,0.0260492682362,0.071671561889
8000000000.0,0.0262357220255,0.072564751392,0.973445123739,-0.096794207961,0.973445123739,-0.096794207961,0.0262357220255,0.072564751392
8100000000.0,0.0264243473574,0.0734574375097,0.973248752206,-0.0979908184157,0.973248752206,-0.0979908184157,0.0264243473574,0.0734574375097
8200000000.0,0.0266151441092,0.0743496145542,0.973050115358,-0.099186949986,0.973050115358,-0.099186949986,0.0266151441092,0.0743496145542
8300000000.0,0.0268081120869,0.0752412768456,0.972849213356,-0.100382597046,0.972849213356,-0.100382597046,0.0268081120869,0.0752412768456
8400000000.0,0.0270032510275,0.0761324187128,0.972646046431,-0.101577753975,0.972646046431,-0.101577753975,0.0270032510275,0.0761324187128
8500000000.0,0.0272005606012,0.0770230344929,0.97244061488,-0.102772415157,0.97244061488,-0.102772415157,0.0272005606012,0.0770230344929
8600000000.0,0.0274000404139,0.0779131185321,0.972232919066,-0.103966574982,0.972232919066,-0.103966574982,0.0274000404139,0.0779131185321
8700000000.0,0.0276016900094,0.0788026651852,0.972022959413,-0.105160227845,0.972022959413,-0.105160227845,0.0276016900094,0.0788026651852
8800000000.0,0.027805508871,0.0796916688161,0.971810736405,-0.106353368147,0.971810736405,-0.106353368147,0.027805508871,0.0796916688161
8900000000.0,0.0280114964241,0.080580123798,0.971596250584,-0.107545990294,0.971596250584,-0.107545990294,0.0280114964241,0.080580123798
9000000000.0,0.0282196520371,0.0814680245134,0.971379502551,-0.1087380887,0.971379502551,-0.1087380887,0.0282196520371,0.0814680245134
9100000000.0,0.028429975024,0.0823553653542,0.971160492958,-0.109929657782,0.971160492958,-0.109929657782,0.028429975024,0.0823553653542
9200000000.0,0.0286424646456,0.0832421407218,0.970939222513,-0.111120691967,0.970939222513,-0.111120691967,0.0286424646456,0.0832421407218
9300000000.0,0.0288571201111,0.0841283450277,0.970715691975,-0.112311185686,0.970715691975,-0.112311185686,0.0288571201111,0.0841283450277
9400000000.0,0.0290739405797,0.0850139726927,0.970489902152,-0.113501133378,0.970489902152,-0.113501133378,0.0290739405797,0.0850139726927
9500000000.0,0.029292925162,0.0858990181479,0.970261853902,-0.114690529489,0.970261853902,-0.114690529489,0.029292925162,0.0858990181479
9600000000.0,0.0295140729211,0.0867834758343,0.97003154813,-0.115879368469,0.97003154813,-0.115879368469,0.0295140729211,0.0867834758343
9700000000.0,0.0297373828744,0.0876673402032,0.969798985786,-0.11706764478,0.969798985786,-0.11706764478,0.0297373828744,0.0876673402032
9800000000.0,0.0299628539944,0.0885506057159,0.969564167867,-0.118255352887,0.969564167867,-0.118255352887,0.0299628539944,0.0885506057159
9900000000.0,0.0301904852101,0.0894332668445,0.969327095411,-0.119442487265,0.969327095411,-0.119442487265,0.0301904852101,0.0894332668445
10000000000.0,0.0304202754079,0.090315318071,0.969087769499,-0.120629042394,0.969087769499,-0.120629042394,0.0304202754079,0.090315318071
