freq (GHz),S11_real,S11_imag,S21_real,S21_imag,S12_real,S12_imag,S22_real,S22_imag
100000000.0,0.000237670645821,-0.00756191531745,0.999598033893,-0.00956192797592,0.999598033893,-0.00956192797592,0.00023767064582,-0.00756191531745
200000000.0,1.45961376228e-05,-0.015120357617,0.999364630818,-0.0191204708455,0.999364630818,-0.0191204708455,1.45961376228e-05,-0.015120357617
300000000.0,-0.000353466705643,-0.0226719158527,0.998983337485,-0.0286722891168,0.998983337485,-0.0286722891168,-0.000353466705643,-0.0226719158527
400000000.0,-0.000865984003799,-0.0302131355976,0.998454136021,-0.0382139858372,0.998454136021,-0.0382139858372,-0.000865984003799,-0.0302131355976
500000000.0,-0.00152248285184,-0.0377405473871,0.997777286098,-0.0477421431713,0.997777286098,-0.0477421431713,-0.00152248285184,-0.0377405473871
600000000.0,-0.00232243291019,-0.0452506799001,0.996953208227,-0.0572533378499,0.996953208227,-0.0572533378499,-0.00232243291019,-0.0452506799001
700000000.0,-0.00326521636092,-0.0527400689191,0.995982454146,-0.0667441511995,0.995982454146,-0.0667441511995,-0.00326521636092,-0.0527400689191
800000000.0,-0.0043501172817,-0.0602052644889,0.994865695705,-0.0762111769132,0.994865695705,-0.0762111769132,-0.0043501172817,-0.0602052644889
900000000.0,-0.0055763174236,-0.0676428371256,0.993603719433,-0.085651027652,0.993603719433,-0.085651027652,-0.0055763174236,-0.0676428371256
1000000000.0,-0.00694289469146,-0.0750493834501,0.992197423168,-0.0950603409484,0.992197423168,-0.0950603409484,-0.00694289469146,-0.0750493834501
1100000000.0,-0.00844882299609,-0.0824215314284,0.990647813498,-0.104435784643,0.990647813498,-0.104435784643,-0.00844882299609,-0.0824215314284
1200000000.0,-0.010092972917,-0.0897559453156,0.988956003487,-0.113774061976,0.988956003487,-0.113774061976,-0.010092972917,-0.0897559453156
1300000000.0,-0.0118741129086,-0.0970493303573,0.987123210456,-0.123071916407,0.987123210456,-0.123071916407,-0.0118741129086,-0.0970493303573
1400000000.0,-0.0137909109082,-0.104298437279,0.985150753719,-0.132326136193,0.985150753719,-0.132326136193,-0.0137909109083,-0.104298437279
1500000000.0,-0.0158419362659,-0.11150006658,0.983040052195,-0.141533558762,0.983040052195,-0.141533558762,-0.0158419362659,-0.11150006658
1600000000.0,-0.0180256619434,-0.118651072638,0.980792621904,-0.150691074878,0.980792621904,-0.150691074878,-0.0180256619434,-0.118651072638
1700000000.0,-0.0203404669484,-0.125748367631,0.978410073297,-0.159795632618,0.978410073297,-0.159795632618,-0.0203404669484,-0.125748367631
1800000000.0,-0.0227846389773,-0.132788925277,0.975894108454,-0.168844241155,0.975894108454,-0.168844241155,-0.0227846389773,-0.132788925277
1900000000.0,-0.0253563772454,-0.139769784386,0.97324651813,-0.177833974349,0.97324651813,-0.177833974349,-0.0253563772454,-0.139769784386
2000000000.0,-0.0280537954871,-0.146688052228,0.970469178656,-0.186761974153,0.970469178656,-0.186761974153,-0.0280537954871,-0.146688052228
2100000000.0,-0.0308749251104,-0.153540907709,0.967564048714,-0.195625453813,0.967564048714,-0.195625453813,-0.0308749251104,-0.153540907709
2200000000.0,-0.0338177184901,-0.160325604352,0.964533165987,-0.204421700883,0.964533165987,-0.204421700883,-0.0338177184901,-0.160325604352
2300000000.0,-0.0368800523866,-0.16703947309,0.961378643696,-0.213148080035,0.961378643696,-0.213148080035,-0.0368800523866,-0.16703947309
2400000000.0,-0.0400597314758,-0.17367992485,0.958102667031,-0.221802035668,0.958102667031,-0.221802035668,-0.0400597314758,-0.17367992485
2500000000.0,-0.043354491978,-0.180244452942,0.954707489493,-0.230381094319,0.954707489493,-0.230381094319,-0.043354491978,-0.180244452942
2600000000.0,-0.0467620053717,-0.186730635248,0.95119542916,-0.238882866861,0.95119542916,-0.238882866861,-0.0467620053717,-0.186730635248
2700000000.0,-0.0502798821812,-0.193136136198,0.947568864875,-0.247305050506,0.947568864875,-0.247305050506,-0.0502798821812,-0.193136136198
2800000000.0,-0.0539056758233,-0.199458708554,0.943830232385,-0.255645430594,0.943830232385,-0.255645430594,-0.0539056758233,-0.199458708554
2900000000.0,-0.0576368865029,-0.205696194974,0.939982020429,-0.263901882179,0.939982020429,-0.263901882179,-0.0576368865029,-0.205696194974
3000000000.0,-0.0614709651443,-0.211846529387,0.9360267668,-0.272072371411,0.9360267668,-0.272072371411,-0.0614709651443,-0.211846529387
3100000000.0,-0.0654053173468,-0.217907738158,0.931967054372,-0.28015495671,0.931967054372,-0.28015495671,-0.0654053173468,-0.217907738158
3200000000.0,-0.0694373073529,-0.223877941046,0.92780550713,-0.288147789747,0.92780550713,-0.288147789747,-0.0694373073529,-0.223877941046
3300000000.0,-0.0735642620181,-0.229755351979,0.923544786189,-0.296049116213,0.923544786189,-0.296049116213,-0.0735642620181,-0.229755351979
3400000000.0,-0.0777834747712,-0.235538279616,0.919187585825,-0.303857276404,0.919187585825,-0.303857276404,-0.0777834747712,-0.235538279616
3500000000.0,-0.082092209555,-0.241225127729,0.914736629534,-0.311570705604,0.914736629534,-0.311570705604,-0.082092209555,-0.241225127729
3600000000.0,-0.086487704737,-0.246814395393,0.910194666112,-0.319187934285,0.910194666112,-0.319187934285,-0.086487704737,-0.246814395393
3700000000.0,-0.0909671769806,-0.25230467699,0.905564465778,-0.326707588121,0.905564465778,-0.326707588121,-0.0909671769806,-0.25230467699
3800000000.0,-0.0955278250672,-0.25769466204,0.900848816351,-0.334128387824,0.900848816351,-0.334128387824,-0.0955278250672,-0.25769466204
3900000000.0,-0.100166833662,-0.262983134854,0.896050519479,-0.341449148804,0.896050519479,-0.341449148804,-0.100166833662,-0.262983134854
4000000000.0,-0.104881377011,-0.268168974025,0.891172386936,-0.348668780668,0.891172386936,-0.348668780668,-0.104881377011,-0.268168974025
4100000000.0,-0.10966862257,-0.273251151753,0.886217236993,-0.355786286548,0.886217236993,-0.355786286548,-0.10966862257,-0.273251151753
4200000000.0,-0.114525734549,-0.27822873302,0.881187890867,-0.36280076229,0.881187890867,-0.36280076229,-0.114525734549,-0.27822873302
4300000000.0,-0.119449877368,-0.283100874617,0.876087169267,-0.369711395475,0.876087169267,-0.369711395475,-0.119449877368,-0.283100874617
4400000000.0,-0.124438219023,-0.287866824031,0.870917889017,-0.37651746432,0.870917889017,-0.37651746432,-0.124438219023,-0.287866824031
4500000000.0,-0.129487934353,-0.292525918198,0.865682859794,-0.383218336433,0.865682859794,-0.383218336433,-0.129487934353,-0.292525918198
4600000000.0,-0.134596208201,-0.297077582132,0.860384880963,-0.389813467448,0.860384880963,-0.389813467448,-0.134596208201,-0.297077582132
4700000000.0,-0.139760238466,-0.301521327436,0.855026738518,-0.39630239954,0.855026738518,-0.39630239954,-0.139760238466,-0.301521327436
4800000000.0,-0.144977239043,-0.305856750707,0.849611202139,-0.402684759832,0.849611202139,-0.402684759832,-0.144977239043,-0.305856750707
4900000000.0,-0.150244442651,-0.310083531828,0.84414102237,-0.408960258698,0.84414102237,-0.408960258698,-0.150244442651,-0.310083531828
5000000000.0,-0.155559103539,-0.314201432183,0.838618927903,-0.415128687973,0.838618927903,-0.415128687973,-0.155559103539,-0.314201432183
5100000000.0,-0.160918500066,-0.318210292768,0.833047622996,-0.421189919076,0.833047622996,-0.421189919076,-0.160918500066,-0.318210292768
5200000000.0,-0.166319937169,-0.322110032235,0.827429785003,-0.427143901051,0.827429785003,-0.427143901051,-0.166319937169,-0.322110032235
5300000000.0,-0.171760748695,-0.325900644861,0.821768062041,-0.432990658546,0.821768062041,-0.432990658546,-0.171760748695,-0.325900644861
5400000000.0,-0.177238299619,-0.329582198451,0.816065070772,-0.438730289717,0.816065070772,-0.438730289717,-0.177238299619,-0.329582198451
5500000000.0,-0.182749988123,-0.333154832193,0.810323394312,-0.444362964082,0.810323394312,-0.444362964082,-0.182749988123,-0.333154832193
5600000000.0,-0.188293247561,-0.336618754454,0.804545580274,-0.449888920327,0.804545580274,-0.449888920327,-0.188293247561,-0.336618754454
5700000000.0,-0.193865548291,-0.339974240542,0.798734138927,-0.455308464066,0.798734138927,-0.455308464066,-0.193865548291,-0.339974240542
5800000000.0,-0.199464399384,-0.343221630431,0.792891541488,-0.460621965572,0.792891541488,-0.460621965572,-0.199464399384,-0.343221630431
5900000000.0,-0.205087350208,-0.346361326456,0.787020218531,-0.465829857474,0.787020218531,-0.465829857474,-0.205087350208,-0.346361326456
6000000000.0,-0.210731991893,-0.34939379099,0.781122558523,-0.470932632436,0.781122558523,-0.470932632436,-0.210731991893,-0.34939379099
6100000000.0,-0.216395958671,-0.352319544104,0.775200906483,-0.47593084082,0.775200906483,-0.47593084082,-0.216395958671,-0.352319544104
6200000000.0,-0.222076929097,-0.355139161217,0.769257562752,-0.480825088339,0.769257562752,-0.480825088339,-0.222076929097,-0.355139161217
6300000000.0,-0.227772627156,-0.357853270744,0.763294781889,-0.485616033706,0.763294781889,-0.485616033706,-0.227772627156,-0.357853270744
6400000000.0,-0.233480823255,-0.360462551747,0.757314771674,-0.490304386289,0.757314771674,-0.490304386289,-0.233480823255,-0.360462551747
6500000000.0,-0.239199335101,-0.362967731586,0.751319692226,-0.494890903767,0.751319692226,-0.494890903767,-0.239199335101,-0.362967731586
6600000000.0,-0.244926028475,-0.365369583597,0.745311655228,-0.4993763898,0.745311655228,-0.4993763898,-0.244926028475,-0.365369583597
6700000000.0,-0.250658817897,-0.367668924766,0.739292723261,-0.50376169172,0.739292723261,-0.50376169172,-0.250658817897,-0.367668924766
6800000000.0,-0.256395667186,-0.369866613445,0.733264909232,-0.508047698235,0.733264909232,-0.508047698235,-0.256395667186,-0.369866613445
6900000000.0,-0.26213458993,-0.371963547079,0.727230175913,-0.512235337166,0.727230175913,-0.512235337166,-0.26213458993,-0.371963547079
7000000000.0,-0.267873649855,-0.373960659966,0.721190435563,-0.516325573208,0.721190435563,-0.516325573208,-0.267873649855,-0.373960659966
7100000000.0,-0.273610961096,-0.375858921051,0.71514754965,-0.520319405723,0.71514754965,-0.520319405723,-0.273610961096,-0.375858921051
7200000000.0,-0.279344688395,-0.377659331753,0.709103328658,-0.524217866574,0.709103328658,-0.524217866574,-0.279344688395,-0.377659331753
7300000000.0,-0.285073047201,-0.379362923834,0.70305953198,-0.528022017989,0.70305953198,-0.528022017989,-0.285073047201,-0.379362923834
7400000000.0,-0.290794303693,-0.380970757305,0.697017867888,-0.531732950472,0.697017867888,-0.531732950472,-0.290794303693,-0.380970757305
7500000000.0,-0.29650677473,-0.382483918377,0.690979993585,-0.535351780757,0.690979993585,-0.535351780757,-0.29650677473,-0.382483918377
7600000000.0,-0.302208827727,-0.383903517462,0.684947515324,-0.538879649808,0.684947515324,-0.538879649808,-0.302208827727,-0.383903517462
7700000000.0,-0.307898880453,-0.385230687215,0.678921988606,-0.542317720864,0.678921988606,-0.542317720864,-0.307898880453,-0.385230687215
7800000000.0,-0.313575400776,-0.386466580628,0.672904918432,-0.545667177535,0.672904918432,-0.545667177535,-0.313575400776,-0.386466580628
7900000000.0,-0.319236906337,-0.387612369178,0.666897759624,-0.548929221948,0.666897759624,-0.548929221948,-0.319236906337,-0.387612369178
8000000000.0,-0.324881964171,-0.388669241024,0.660901917202,-0.552105072948,0.660901917202,-0.552105072948,-0.324881964171,-0.388669241024
8100000000.0,-0.330509190269,-0.389638399257,0.654918746819,-0.55519596435,0.654918746819,-0.55519596435,-0.330509190269,-0.389638399257
8200000000.0,-0.336117249094,-0.390521060204,0.648949555239,-0.558203143242,0.648949555239,-0.558203143242,-0.336117249094,-0.390521060204
8300000000.0,-0.341704853044,-0.391318451788,0.64299560087,-0.56112786835,0.64299560087,-0.56112786835,-0.341704853044,-0.391318451788
8400000000.0,-0.347270761874,-0.392031811945,0.637058094341,-0.563971408447,0.637058094341,-0.563971408447,-0.347270761874,-0.392031811945
8500000000.0,-0.352813782081,-0.392662387089,0.631138199112,-0.566735040831,0.631138199112,-0.566735040831,-0.352813782081,-0.392662387089
8600000000.0,-0.35833276624,-0.39321143064,0.62523703213,-0.569420049846,0.62523703213,-0.569420049846,-0.35833276624,-0.39321143064
8700000000.0,-0.363826612323,-0.393680201605,0.619355664514,-0.572027725467,0.619355664514,-0.572027725467,-0.363826612323,-0.393680201605
8800000000.0,-0.369294262967,-0.394069963214,0.613495122274,-0.574559361935,0.613495122274,-0.574559361935,-0.369294262967,-0.394069963214
8900000000.0,-0.37473470473,-0.39438198161,0.607656387057,-0.57701625645,0.607656387057,-0.57701625645,-0.37473470473,-0.39438198161
9000000000.0,-0.380146967312,-0.394617524596,0.601840396917,-0.579399707917,0.601840396917,-0.579399707917,-0.380146967312,-0.394617524596
9100000000.0,-0.385530122761,-0.394777860434,0.596048047113,-0.581711015748,0.596048047113,-0.581711015748,-0.385530122761,-0.394777860434
9200000000.0,-0.390883284648,-0.3948642567,0.590280190918,-0.583951478714,0.590280190918,-0.583951478714,-0.390883284648,-0.3948642567
9300000000.0,-0.396205607237,-0.394877979189,0.584537640453,-0.586122393854,0.584537640453,-0.586122393854,-0.396205607237,-0.394877979189
9400000000.0,-0.40149628463,-0.394820290873,0.578821167534,-0.588225055435,0.578821167534,-0.588225055435,-0.40149628463,-0.394820290873
9500000000.0,-0.406754549905,-0.394692450912,0.573131504529,-0.590260753957,0.573131504529,-0.590260753957,-0.406754549905,-0.394692450912
9600000000.0,-0.411979674242,-0.394495713713,0.567469345232,-0.592230775218,0.567469345232,-0.592230775218,-0.411979674242,-0.394495713713
9700000000.0,-0.417170966039,-0.394231328036,0.561835345735,-0.594136399422,0.561835345735,-0.594136399422,-0.417170966039,-0.394231328036
9800000000.0,-0.422327770026,-0.393900536155,0.556230125315,-0.595978900334,0.556230125315,-0.595978900334,-0.422327770026,-0.393900536155
9900000000.0,-0.427449466367,-0.393504573061,0.550654267323,-0.597759544489,0.550654267323,-0.597759544489,-0.427449466367,-0.393504573061
10000000000.0,-0.432535469766,-0.39304466571,0.545108320077,-0.599479590437,0.545108320077,-0.599479590437,-0.432535469766,-0.39304466571
