freq (GHz),S11_real,S11_imag,S21_real,S21_imag,S12_real,S12_imag,S22_real,S22_imag
100000000.0,0.000259167839147,-0.0036240908815,0.999691405056,-0.00529300337945,0.999691405056,-0.00529300337945,0.000259167839147,-0.0036240908815
200000000.0,0.000199196256508,-0.00724788211337,0.999623424015,-0.0105857700449,0.999623424015,-0.0105857700449,0.000199196256508,-0.00724788211337
300000000.0,0.000100364816116,-0.0108710070715,0.999514779956,-0.0158779799866,0.999514779956,-0.0158779799866,0.000100364816116,-0.0108710070715
400000000.0,-3.70760261594e-05,-0.0144930670119,0.999365233396,-0.0211692696766,0.999365233396,-0.0211692696766,-3.70760261594e-05,-0.0144930670119
500000000.0,-0.000213021328643,-0.0181136461252,0.999174700382,-0.026459253726,0.999174700382,-0.026459253726,-0.000213021328643,-0.0181136461252
600000000.0,-0.00042740668071,-0.0217323171772,0.998943148532,-0.0317475323806,0.998943148532,-0.0317475323806,-0.000427406680711,-0.0217323171772
700000000.0,-0.000680181320538,-0.0253486445066,0.998670570885,-0.0370336953962,0.998670570885,-0.0370336953962,-0.000680181320537,-0.0253486445066
800000000.0,-0.000971298191598,-0.0289621858992,0.998356976519,-0.0423173244178,0.998356976519,-0.0423173244178,-0.000971298191598,-0.0289621858992
900000000.0,-0.00130070942212,-0.032572493888,0.998002386481,-0.0475979946025,0.998002386481,-0.0475979946025,-0.00130070942212,-0.032572493888
1000000000.0,-0.00166836396604,-0.0361791167223,0.997606831799,-0.0528752758101,0.997606831799,-0.0528752758101,-0.00166836396604,-0.0361791167223
1100000000.0,-0.00207420624148,-0.0397815991294,0.997170352432,-0.0581487335267,0.997170352432,-0.0581487335267,-0.00207420624148,-0.0397815991294
1200000000.0,-0.00251817528191,-0.0433794829402,0.996692996687,-0.0634179296109,0.996692996687,-0.0634179296109,-0.00251817528191,-0.0433794829402
1300000000.0,-0.00300020417386,-0.0469723076202,0.996174820878,-0.0686824229199,0.996174820878,-0.0686824229199,-0.00300020417386,-0.0469723076202
1400000000.0,-0.00352021966637,-0.050559610732,0.995615889129,-0.0739417698466,0.995615889129,-0.0739417698466,-0.00352021966637,-0.050559610732
1500000000.0,-0.0040781418895,-0.0541409283474,0.995016273257,-0.0791955247932,0.995016273257,-0.0791955247932,-0.0040781418895,-0.0541409283474
1600000000.0,-0.00467388414594,-0.0577157954215,0.994376052695,-0.0844432405957,0.994376052695,-0.0844432405957,-0.00467388414594,-0.0577157954215
1700000000.0,-0.00530735275377,-0.0612837461363,0.99369531445,-0.0896844689099,0.99369531445,-0.0896844689099,-0.00530735275377,-0.0612837461363
1800000000.0,-0.0059784469267,-0.0648443142215,0.992974153076,-0.0949187605684,0.992974153076,-0.0949187605684,-0.0059784469267,-0.0648443142215
1900000000.0,-0.00668705868294,-0.0683970332551,0.992212670653,-0.100145665912,0.992212670653,-0.100145665912,-0.00668705868294,-0.0683970332551
2000000000.0,-0.00743307277634,-0.0719414369486,0.991410976773,-0.105364735102,0.991410976773,-0.105364735102,-0.00743307277634,-0.0719414369486
2100000000.0,-0.008216366646,-0.0754770594197,0.990569188524,-0.110575518415,0.990569188524,-0.110575518415,-0.008216366646,-0.0754770594197
2200000000.0,-0.00903681038109,-0.0790034354522,0.989687430477,-0.115777566527,0.989687430477,-0.115777566527,-0.00903681038109,-0.0790034354522
2300000000.0,-0.00989426669878,-0.0825201007475,0.988765834663,-0.120970430779,0.988765834663,-0.120970430779,-0.00989426669878,-0.0825201007475
2400000000.0,-0.0107885909338,-0.0860265921671,0.987804540557,-0.126153663437,0.987804540557,-0.126153663437,-0.0107885909338,-0.0860265921671
2500000000.0,-0.011719631038,-0.0895224479674,0.98680369505,-0.131326817945,0.98680369505,-0.131326817945,-0.011719631038,-0.0895224479674
2600000000.0,-0.0126872275897,-0.0930072080275,0.985763452419,-0.13648944916,0.985763452419,-0.13648944916,-0.0126872275897,-0.0930072080275
2700000000.0,-0.0136912138109,-0.0964804140714,0.984683974291,-0.141641113592,0.984683974291,-0.141641113592,-0.0136912138109,-0.0964804140714
2800000000.0,-0.0147314155931,-0.0999416098837,0.983565429604,-0.146781369628,0.983565429604,-0.146781369628,-0.0147314155931,-0.0999416098837
2900000000.0,-0.0158076515302,-0.10339034152,0.982407994563,-0.151909777749,0.982407994563,-0.151909777749,-0.0158076515302,-0.10339034152
3000000000.0,-0.0169197329582,-0.106826157513,0.981211852589,-0.157025900753,0.981211852589,-0.157025900753,-0.0169197329582,-0.106826157513
3100000000.0,-0.0180674640018,-0.110248609073,0.979977194266,-0.162129303955,0.979977194266,-0.162129303955,-0.0180674640018,-0.110248609073
3200000000.0,-0.0192506416273,-0.113657250281,0.978704217277,-0.167219555398,0.978704217277,-0.167219555398,-0.0192506416273,-0.113657250281
3300000000.0,-0.0204690557012,-0.117051638284,0.977393126344,-0.172296226044,0.977393126344,-0.172296226044,-0.0204690557012,-0.117051638284
3400000000.0,-0.0217224890548,-0.12043133348,0.976044133155,-0.177358889975,0.976044133155,-0.177358889975,-0.0217224890548,-0.12043133348
3500000000.0,-0.0230107175541,-0.123795899698,0.974657456292,-0.182407124573,0.974657456292,-0.182407124573,-0.0230107175541,-0.123795899698
3600000000.0,-0.0243335101752,-0.12714490438,0.973233321149,-0.187440510713,0.973233321149,-0.187440510713,-0.0243335101752,-0.12714490438
3700000000.0,-0.0256906290843,-0.130477918751,0.971771959851,-0.192458632933,0.971771959851,-0.192458632933,-0.0256906290843,-0.130477918751
3800000000.0,-0.0270818297233,-0.13379451799,0.970273611163,-0.197461079614,0.970273611163,-0.197461079614,-0.0270818297233,-0.13379451799
3900000000.0,-0.0285068608992,-0.137094281395,0.968738520403,-0.202447443148,0.968738520403,-0.202447443148,-0.0285068608992,-0.137094281395
4000000000.0,-0.0299654648789,-0.140376792543,0.96716693934,-0.207417320102,0.96716693934,-0.207417320102,-0.0299654648789,-0.140376792543
4100000000.0,-0.031457377487,-0.143641639447,0.965559126093,-0.212370311381,0.965559126093,-0.212370311381,-0.031457377487,-0.143641639447
4200000000.0,-0.0329823282097,-0.146888414708,0.963915345033,-0.21730602238,0.963915345033,-0.21730602238,-0.0329823282097,-0.146888414708
4300000000.0,-0.0345400403005,-0.150116715662,0.962235866668,-0.222224063141,0.962235866668,-0.222224063141,-0.0345400403005,-0.150116715662
4400000000.0,-0.0361302308912,-0.153326144524,0.960520967534,-0.227124048494,0.960520967534,-0.227124048494,-0.0361302308912,-0.153326144524
4500000000.0,-0.0377526111061,-0.156516308526,0.958770930079,-0.232005598201,0.958770930079,-0.232005598201,-0.0377526111061,-0.156516308526
4600000000.0,-0.0394068861792,-0.159686820055,0.956986042546,-0.236868337098,0.956986042546,-0.236868337098,-0.0394068861792,-0.159686820055
4700000000.0,-0.0410927555756,-0.162837296778,0.955166598847,-0.241711895222,0.955166598847,-0.241711895222,-0.0410927555756,-0.162837296778
4800000000.0,-0.0428099131152,-0.165967361771,0.953312898443,-0.246535907942,0.953312898443,-0.246535907942,-0.0428099131152,-0.165967361771
4900000000.0,-0.0445580471,-0.169076643642,0.951425246212,-0.251340016083,0.951425246212,-0.251340016083,-0.0445580471,-0.169076643642
5000000000.0,-0.0463368404437,-0.172164776641,0.94950395232,-0.256123866047,0.94950395232,-0.256123866047,-0.0463368404437,-0.172164776641
5100000000.0,-0.0481459708044,-0.17523140078,0.947549332088,-0.260887109923,0.947549332088,-0.260887109923,-0.0481459708044,-0.17523140078
5200000000.0,-0.0499851107196,-0.178276161938,0.945561705856,-0.265629405602,0.945561705856,-0.265629405602,-0.0499851107196,-0.178276161938
5300000000.0,-0.0518539277436,-0.18129871196,0.943541398846,-0.270350416878,0.943541398846,-0.270350416878,-0.0518539277436,-0.18129871196
5400000000.0,-0.0537520845871,-0.184298708762,0.941488741018,-0.275049813553,0.941488741018,-0.275049813553,-0.0537520845871,-0.184298708762
5500000000.0,-0.055679239259,-0.187275816423,0.939404066932,-0.279727271527,0.939404066932,-0.279727271527,-0.055679239259,-0.187275816423
5600000000.0,-0.0576350452094,-0.19022970527,0.937287715603,-0.284382472898,0.937287715603,-0.284382472898,-0.0576350452094,-0.19022970527
5700000000.0,-0.0596191514757,-0.193160051971,0.935140030353,-0.289015106039,0.935140030353,-0.289015106039,-0.0596191514757,-0.193160051971
5800000000.0,-0.0616312028287,-0.196066539608,0.932961358668,-0.293624865687,0.932961358668,-0.293624865687,-0.0616312028287,-0.196066539608
5900000000.0,-0.0636708399214,-0.198948857758,0.930752052041,-0.298211453018,0.930752052041,-0.298211453018,-0.0636708399214,-0.198948857758
6000000000.0,-0.0657376994384,-0.201806702559,0.928512465834,-0.302774575717,0.928512465834,-0.302774575717,-0.0657376994384,-0.201806702559
6100000000.0,-0.0678314142469,-0.204639776784,0.926242959114,-0.307313948052,0.926242959114,-0.307313948052,-0.0678314142469,-0.204639776784
6200000000.0,-0.0699516135479,-0.207447789893,0.923943894512,-0.311829290932,0.923943894512,-0.311829290932,-0.0699516135479,-0.207447789893
6300000000.0,-0.0720979230294,-0.210230458102,0.92161563806,-0.316320331969,0.92161563806,-0.316320331969,-0.0720979230294,-0.210230458102
6400000000.0,-0.0742699650196,-0.212987504426,0.919258559046,-0.32078680553,0.919258559046,-0.32078680553,-0.0742699650196,-0.212987504426
6500000000.0,-0.0764673586406,-0.215718658733,0.916873029854,-0.325228452789,0.916873029854,-0.325228452789,-0.0764673586406,-0.215718658733
6600000000.0,-0.0786897199627,-0.218423657789,0.91445942581,-0.329645021771,0.91445942581,-0.329645021771,-0.0786897199627,-0.218423657789
6700000000.0,-0.0809366621597,-0.221102245292,0.912018125029,-0.334036267394,0.912018125029,-0.334036267394,-0.0809366621597,-0.221102245292
6800000000.0,-0.0832077956629,-0.223754171913,0.909549508258,-0.338401951501,0.909549508258,-0.338401951501,-0.0832077956629,-0.223754171913
6900000000.0,-0.0855027283163,-0.226379195326,0.907053958723,-0.342741842898,0.907053958723,-0.342741842898,-0.0855027283163,-0.226379195326
7000000000.0,-0.0878210655317,-0.228977080231,0.904531861969,-0.347055717378,0.904531861969,-0.347055717378,-0.0878210655317,-0.228977080231
7100000000.0,-0.0901624104429,-0.231547598378,0.90198360571,-0.351343357744,0.90198360571,-0.351343357744,-0.0901624104429,-0.231547598378
7200000000.0,-0.0925263640597,-0.23409052859,0.899409579673,-0.355604553831,0.899409579673,-0.355604553831,-0.0925263640597,-0.23409052859
7300000000.0,-0.0949125254225,-0.236605656769,0.896810175441,-0.359839102515,0.896810175441,-0.359839102515,-0.0949125254225,-0.236605656769
7400000000.0,-0.0973204917546,-0.239092775912,0.894185786304,-0.364046807732,0.894185786304,-0.364046807732,-0.0973204917546,-0.239092775912
7500000000.0,-0.0997498586152,-0.241551686112,0.891536807102,-0.368227480474,0.891536807102,-0.368227480474,-0.0997498586152,-0.241551686112
7600000000.0,-0.102200220051,-0.243982194564,0.888863634075,-0.372380938803,0.888863634075,-0.372380938803,-0.102200220051,-0.243982194564
7700000000.0,-0.104671168747,-0.246384115562,0.886166664712,-0.37650700784,0.886166664712,-0.37650700784,-0.104671168747,-0.246384115562
7800000000.0,-0.107162296177,-0.248757270489,0.883446297598,-0.380605519763,0.883446297598,-0.380605519763,-0.107162296177,-0.248757270489
7900000000.0,-0.109673192749,-0.251101487813,0.880702932269,-0.3846763138,0.880702932269,-0.3846763138,-0.109673192749,-0.251101487813
8000000000.0,-0.112203447958,-0.25341660307,0.877936969063,-0.388719236213,0.877936969063,-0.388719236213,-0.112203447958,-0.25341660307
8100000000.0,-0.114752650527,-0.255702458846,0.875148808969,-0.392734140283,0.875148808969,-0.392734140283,-0.114752650527,-0.255702458846
8200000000.0,-0.117320388557,-0.257958904758,0.872338853489,-0.396720886287,0.872338853489,-0.396720886287,-0.117320388557,-0.257958904758
8300000000.0,-0.119906249663,-0.260185797432,0.869507504489,-0.400679341479,0.869507504489,-0.400679341479,-0.119906249663,-0.260185797432
8400000000.0,-0.122509821122,-0.262383000469,0.866655164058,-0.404609380056,0.866655164058,-0.404609380056,-0.122509821122,-0.262383000469
8500000000.0,-0.12513069001,-0.264550384419,0.863782234371,-0.408510883134,0.863782234371,-0.408510883134,-0.12513069001,-0.264550384419
8600000000.0,-0.127768443342,-0.266687826745,0.860889117545,-0.41238373871,0.860889117545,-0.41238373871,-0.127768443342,-0.266687826745
8700000000.0,-0.130422668206,-0.268795211783,0.857976215507,-0.416227841625,0.857976215507,-0.416227841625,-0.130422668206,-0.268795211783
8800000000.0,-0.133092951897,-0.270872430708,0.855043929855,-0.420043093526,0.855043929855,-0.420043093526,-0.133092951897,-0.270872430708
8900000000.0,-0.135778882055,-0.272919381482,0.852092661727,-0.423829402819,0.852092661727,-0.423829402819,-0.135778882055,-0.272919381482
9000000000.0,-0.138480046787,-0.274935968814,0.849122811673,-0.427586684625,0.849122811673,-0.427586684625,-0.138480046787,-0.274935968814
9100000000.0,-0.141196034803,-0.276922104105,0.846134779519,-0.431314860732,0.846134779519,-0.431314860732,-0.141196034803,-0.276922104105
9200000000.0,-0.143926435537,-0.278877705402,0.843128964248,-0.43501385954,0.843128964248,-0.43501385954,-0.143926435537,-0.278877705402
9300000000.0,-0.146670839273,-0.280802697336,0.840105763871,-0.438683616006,0.840105763871,-0.438683616006,-0.146670839273,-0.280802697336
9400000000.0,-0.149428837268,-0.28269701107,0.837065575305,-0.442324071591,0.837065575305,-0.442324071591,-0.149428837268,-0.28269701107
9500000000.0,-0.152200021869,-0.284560584238,0.834008794255,-0.445935174195,0.834008794255,-0.445935174195,-0.152200021869,-0.284560584238
9600000000.0,-0.15498398663,-0.286393360878,0.830935815096,-0.449516878098,0.830935815096,-0.449516878098,-0.15498398663,-0.286393360878
9700000000.0,-0.157780326427,-0.288195291375,0.827847030755,-0.453069143896,0.827847030755,-0.453069143896,-0.157780326427,-0.288195291375
9800000000.0,-0.160588637573,-0.289966332387,0.824742832605,-0.45659193843,0.824742832605,-0.45659193843,-0.160588637573,-0.289966332387
9900000000.0,-0.163408517923,-0.291706446781,0.821623610347,-0.460085234721,0.821623610347,-0.460085234721,-0.163408517923,-0.291706446781
10000000000.0,-0.166239566985,-0.293415603558,0.818489751906,-0.463549011899,0.818489751906,-0.463549011899,-0.166239566985,-0.293415603558
