freq (GHz),S11_real,S11_imag,S21_real,S21_imag,S12_real,S12_imag,S22_real,S22_imag
100000000.0,0.000190604146985,-0.00233070073586,0.999783619227,-0.00381043850649,0.999783619227,-0.00381043850649,0.000190604146985,-0.00233070073586
200000000.0,0.000162370894885,-0.00466140424833,0.999749355439,-0.00762094122808,0.999749355439,-0.00762094122808,0.000162370894885,-0.00466140424833
300000000.0,0.000116016727315,-0.0069920460664,0.999695485457,-0.0114314835173,0.999695485457,-0.0114314835173,0.000116016727315,-0.0069920460664
400000000.0,5.17135558771e-05,-0.00932253801534,0.999621830078,-0.0152420070759,0.999621830078,-0.0152420070759,5.17135558773e-05,-0.00932253801534
500000000.0,-3.04744298991e-05,-0.0116527791722,0.999528318104,-0.0190524364587,0.999528318104,-0.0190524364587,-3.04744298992e-05,-0.0116527791722
600000000.0,-0.000130515627405,-0.0139826599259,0.999414911742,-0.0228626847872,0.999414911742,-0.0228626847872,-0.000130515627405,-0.0139826599259
700000000.0,-0.000248391824601,-0.0163120641037,0.999281587806,-0.0266726566763,0.999281587806,-0.0266726566763,-0.000248391824601,-0.0163120641037
800000000.0,-0.000384091123996,-0.0186408702767,0.999128330944,-0.0304822500059,0.999128330944,-0.0304822500059,-0.000384091123995,-0.0186408702767
900000000.0,-0.000537604740507,-0.0209689526427,0.998955130687,-0.0342913571044,0.998955130687,-0.0342913571044,-0.000537604740507,-0.0209689526427
1000000000.0,-0.000708925339239,-0.0232961816647,0.998761979996,-0.0380998655958,0.998761979996,-0.0380998655958,-0.00070892533924,-0.0232961816647
1100000000.0,-0.000898046080924,-0.025622424556,0.998548874493,-0.041907659036,0.998548874493,-0.041907659036,-0.000898046080925,-0.025622424556
1200000000.0,-0.00110496002881,-0.0279475456636,0.998315812024,-0.045714617412,0.998315812024,-0.045714617412,-0.00110496002881,-0.0279475456636
1300000000.0,-0.00132965975573,-0.0302714067795,0.998062792412,-0.049520617543,0.998062792412,-0.049520617543,-0.00132965975573,-0.0302714067795
1400000000.0,-0.00157213706967,-0.0325938674023,0.997789817305,-0.053325533413,0.997789817305,-0.053325533413,-0.00157213706967,-0.0325938674023
1500000000.0,-0.00183238281328,-0.0349147849588,0.997496890093,-0.0571292364514,0.997496890093,-0.0571292364514,-0.00183238281327,-0.0349147849588
1600000000.0,-0.00211038671175,-0.0372340149976,0.997184015859,-0.0609315957753,0.997184015859,-0.0609315957753,-0.00211038671175,-0.0372340149976
1700000000.0,-0.00240613725387,-0.0395514113591,0.996851201354,-0.0647324783998,0.996851201354,-0.0647324783998,-0.00240613725387,-0.0395514113591
1800000000.0,-0.00271962159621,-0.041866826328,0.996498454986,-0.0685317494257,0.996498454986,-0.0685317494257,-0.00271962159621,-0.041866826328
1900000000.0,-0.00305082548452,-0.0441801107705,0.996125786822,-0.0723292722062,0.996125786822,-0.0723292722062,-0.00305082548452,-0.0441801107705
2000000000.0,-0.00339973318785,-0.0464911142601,0.995733208593,-0.076124908499,0.995733208593,-0.076124908499,-0.00339973318785,-0.0464911142601
2100000000.0,-0.00376632744273,-0.048799685193,0.995320733702,-0.0799185186039,0.995320733702,-0.0799185186039,-0.00376632744273,-0.048799685193
2200000000.0,-0.00415058940507,-0.0511056708954,0.994888377238,-0.0837099614909,0.994888377238,-0.0837099614909,-0.00415058940507,-0.0511056708954
2300000000.0,-0.00455249860855,-0.0534089177233,0.994436155989,-0.0874990949174,0.994436155989,-0.0874990949174,-0.00455249860855,-0.0534089177233
2400000000.0,-0.00497203292831,-0.0557092711569,0.993964088456,-0.091285775538,0.993964088456,-0.091285775538,-0.00497203292831,-0.0557092711569
2500000000.0,-0.00540916854908,-0.0580065758887,0.993472194864,-0.0950698590082,0.993472194864,-0.0950698590082,-0.00540916854908,-0.0580065758887
2600000000.0,-0.00586387993712,-0.0603006759081,0.992960497178,-0.0988512000807,0.992960497178,-0.0988512000807,-0.00586387993712,-0.0603006759081
2700000000.0,-0.00633613981564,-0.0625914145813,0.992429019113,-0.102629652697,0.992429019113,-0.102629652697,-0.00633613981564,-0.0625914145813
2800000000.0,-0.00682591914303,-0.0648786347277,0.99187778615,-0.106405070077,0.99187778615,-0.106405070077,-0.00682591914303,-0.0648786347277
2900000000.0,-0.00733318709387,-0.067162178693,0.99130682554,-0.110177304796,0.99130682554,-0.110177304796,-0.00733318709387,-0.067162178693
3000000000.0,-0.00785791104228,-0.0694418884199,0.990716166319,-0.11394620887,0.990716166319,-0.11394620887,-0.00785791104228,-0.0694418884199
3100000000.0,-0.00840005654746,-0.0717176055156,0.990105839317,-0.117711633831,0.990105839317,-0.117711633831,-0.00840005654746,-0.0717176055156
3200000000.0,-0.00895958734134,-0.0739891713174,0.98947587716,-0.121473430796,0.98947587716,-0.121473430796,-0.00895958734133,-0.0739891713174
3300000000.0,-0.00953646531793,-0.0762564269556,0.988826314281,-0.125231450541,0.988826314281,-0.125231450541,-0.00953646531793,-0.0762564269556
3400000000.0,-0.0101306505246,-0.0785192134153,0.988157186926,-0.128985543566,0.988157186926,-0.128985543566,-0.0101306505246,-0.0785192134153
3500000000.0,-0.010742101155,-0.0807773715954,0.987468533153,-0.132735560163,0.987468533153,-0.132735560163,-0.010742101155,-0.0807773715954
3600000000.0,-0.0113707735433,-0.0830307423661,0.986760392841,-0.136481350478,0.986760392841,-0.136481350478,-0.0113707735433,-0.0830307423661
3700000000.0,-0.01201662216,-0.0852791666255,0.986032807688,-0.140222764572,0.986032807688,-0.140222764572,-0.01201662216,-0.0852791666255
3800000000.0,-0.0126795996095,-0.087522485354,0.985285821212,-0.143959652481,0.985285821212,-0.143959652481,-0.0126795996095,-0.087522485354
3900000000.0,-0.0133596566285,-0.0897605396673,0.984519478753,-0.147691864273,0.984519478753,-0.147691864273,-0.0133596566285,-0.0897605396673
4000000000.0,-0.0140567420855,-0.0919931708683,0.98373382747,-0.151419250107,0.98373382747,-0.151419250107,-0.0140567420855,-0.0919931708683
4100000000.0,-0.0147708029825,-0.0942202204976,0.982928916338,-0.155141660282,0.982928916338,-0.155141660282,-0.0147708029825,-0.0942202204976
4200000000.0,-0.0155017844567,-0.0964415303832,0.982104796148,-0.158858945295,0.982104796148,-0.158858945295,-0.0155017844567,-0.0964415303832
4300000000.0,-0.0162496297839,-0.0986569426881,0.981261519497,-0.162570955891,0.981261519497,-0.162570955891,-0.0162496297839,-0.0986569426881
4400000000.0,-0.0170142803834,-0.100866299958,0.980399140789,-0.166277543114,0.980399140789,-0.166277543114,-0.0170142803834,-0.100866299958
4500000000.0,-0.0177956758225,-0.103069445166,0.979517716225,-0.169978558354,0.979517716225,-0.169978558354,-0.0177956758225,-0.103069445166
4600000000.0,-0.0185937538237,-0.105266221759,0.978617303796,-0.173673853399,0.978617303796,-0.173673853399,-0.0185937538237,-0.105266221759
4700000000.0,-0.0194084502719,-0.107456473702,0.977697963276,-0.177363280476,0.977697963276,-0.177363280476,-0.0194084502719,-0.107456473702
4800000000.0,-0.0202396992225,-0.10964004552,0.976759756215,-0.181046692302,0.976759756215,-0.181046692302,-0.0202396992225,-0.10964004552
4900000000.0,-0.0210874329108,-0.111816782337,0.975802745924,-0.184723942127,0.975802745924,-0.184723942127,-0.0210874329108,-0.111816782337
5000000000.0,-0.021951581762,-0.113986529925,0.97482699747,-0.188394883775,0.97482699747,-0.188394883775,-0.021951581762,-0.113986529925
5100000000.0,-0.0228320744023,-0.116149134735,0.973832577661,-0.19205937169,0.973832577661,-0.19205937169,-0.0228320744023,-0.116149134735
5200000000.0,-0.0237288376702,-0.118304443944,0.972819555037,-0.195717260974,0.972819555037,-0.195717260974,-0.0237288376702,-0.118304443944
5300000000.0,-0.0246417966293,-0.120452305489,0.971787999854,-0.199368407429,0.971787999854,-0.199368407429,-0.0246417966293,-0.120452305489
5400000000.0,-0.0255708745818,-0.122592568104,0.970737984072,-0.203012667599,0.970737984072,-0.203012667599,-0.0255708745818,-0.122592568104
5500000000.0,-0.0265159930819,-0.12472508136,0.969669581341,-0.206649898804,0.969669581341,-0.206649898804,-0.0265159930819,-0.12472508136
5600000000.0,-0.0274770719509,-0.1268496957,0.968582866987,-0.210279959181,0.968582866987,-0.210279959181,-0.0274770719509,-0.1268496957
5700000000.0,-0.0284540292924,-0.12896626247,0.967477917992,-0.213902707717,0.967477917992,-0.213902707717,-0.0284540292924,-0.12896626247
5800000000.0,-0.0294467815088,-0.131074633961,0.966354812984,-0.217518004291,0.966354812984,-0.217518004291,-0.0294467815088,-0.131074633961
5900000000.0,-0.0304552433171,-0.133174663434,0.965213632215,-0.221125709702,0.965213632215,-0.221125709702,-0.0304552433171,-0.133174663434
6000000000.0,-0.031479327767,-0.135266205158,0.964054457546,-0.224725685709,0.964054457546,-0.224725685709,-0.031479327767,-0.135266205158
6100000000.0,-0.0325189462587,-0.137349114442,0.962877372429,-0.228317795058,0.962877372429,-0.228317795058,-0.0325189462587,-0.137349114442
6200000000.0,-0.0335740085607,-0.139423247663,0.961682461886,-0.231901901522,0.961682461886,-0.231901901522,-0.0335740085607,-0.139423247663
6300000000.0,-0.0346444228297,-0.141488462299,0.960469812492,-0.235477869925,0.960469812492,-0.235477869925,-0.0346444228297,-0.141488462299
6400000000.0,-0.0357300956297,-0.143544616956,0.959239512356,-0.239045566178,0.959239512356,-0.239045566178,-0.0357300956297,-0.143544616956
6500000000.0,-0.0368309319521,-0.145591571401,0.957991651098,-0.242604857308,0.957991651098,-0.242604857308,-0.0368309319521,-0.145591571401
6600000000.0,-0.0379468352363,-0.147629186585,0.956726319831,-0.246155611485,0.956726319831,-0.246155611485,-0.0379468352363,-0.147629186585
6700000000.0,-0.0390777073908,-0.149657324676,0.955443611139,-0.249697698052,0.955443611139,-0.249697698052,-0.0390777073908,-0.149657324676
6800000000.0,-0.0402234488148,-0.15167584908,0.954143619051,-0.253230987551,0.954143619051,-0.253230987551,-0.0402234488148,-0.15167584908
6900000000.0,-0.0413839584198,-0.15368462447,0.952826439029,-0.256755351754,0.952826439029,-0.256755351754,-0.0413839584198,-0.15368462447
7000000000.0,-0.0425591336525,-0.155683516811,0.951492167933,-0.260270663683,0.951492167933,-0.260270663683,-0.0425591336525,-0.155683516811
7100000000.0,-0.0437488705169,-0.157672393386,0.95014090401,-0.26377679764,0.95014090401,-0.26377679764,-0.0437488705169,-0.157672393386
7200000000.0,-0.0449530635982,-0.159651122814,0.948772746862,-0.26727362923,0.948772746862,-0.26727362923,-0.0449530635982,-0.159651122814
7300000000.0,-0.0461716060856,-0.16161957508,0.947387797425,-0.270761035383,0.947387797425,-0.270761035383,-0.0461716060856,-0.16161957508
7400000000.0,-0.0474043897968,-0.163577621553,0.945986157948,-0.274238894379,0.945986157948,-0.274238894379,-0.0474043897968,-0.163577621553
7500000000.0,-0.0486513052018,-0.165525135009,0.944567931963,-0.277707085872,0.944567931963,-0.277707085872,-0.0486513052018,-0.165525135009
7600000000.0,-0.0499122414476,-0.167461989652,0.943133224267,-0.281165490906,0.943133224267,-0.281165490906,-0.0499122414476,-0.167461989652
7700000000.0,-0.051187086383,-0.169388061134,0.941682140889,-0.28461399194,0.941682140889,-0.28461399194,-0.051187086383,-0.169388061134
7800000000.0,-0.0524757265836,-0.171303226575,0.940214789074,-0.288052472869,0.940214789074,-0.288052472869,-0.0524757265836,-0.171303226575
7900000000.0,-0.0537780473776,-0.173207364579,0.93873127725,-0.291480819039,0.93873127725,-0.291480819039,-0.0537780473776,-0.173207364579
8000000000.0,-0.0550939328708,-0.175100355257,0.937231715005,-0.29489891727,0.937231715005,-0.29489891727,-0.0550939328708,-0.175100355257
8100000000.0,-0.0564232659729,-0.176982080241,0.935716213061,-0.298306655871,0.935716213061,-0.298306655871,-0.0564232659729,-0.176982080241
8200000000.0,-0.0577659284236,-0.178852422703,0.934184883249,-0.301703924657,0.934184883249,-0.301703924657,-0.0577659284236,-0.178852422703
8300000000.0,-0.0591218008186,-0.180711267369,0.932637838479,-0.305090614971,0.932637838479,-0.305090614971,-0.0591218008186,-0.180711267369
8400000000.0,-0.0604907626365,-0.182558500535,0.931075192718,-0.30846661969,0.931075192718,-0.30846661969,-0.0604907626365,-0.182558500535
8500000000.0,-0.0618726922652,-0.184394010082,0.92949706096,-0.31183183325,0.92949706096,-0.31183183325,-0.0618726922652,-0.184394010082
8600000000.0,-0.0632674670286,-0.186217685493,0.927903559199,-0.315186151655,0.927903559199,-0.315186151655,-0.0632674670286,-0.186217685493
8700000000.0,-0.064674963214,-0.188029417862,0.926294804404,-0.318529472491,0.926294804404,-0.318529472491,-0.064674963214,-0.188029417862
8800000000.0,-0.0660950560989,-0.189829099908,0.92467091449,-0.321861694942,0.92467091449,-0.321861694942,-0.0660950560989,-0.189829099908
8900000000.0,-0.0675276199783,-0.19161662599,0.923032008291,-0.3251827198,0.923032008291,-0.3251827198,-0.0675276199783,-0.19161662599
9000000000.0,-0.0689725281921,-0.193391892116,0.921378205533,-0.328492449476,0.921378205533,-0.328492449476,-0.0689725281921,-0.193391892116
9100000000.0,-0.0704296531523,-0.195154795954,0.919709626805,-0.331790788015,0.919709626805,-0.331790788015,-0.0704296531523,-0.195154795954
9200000000.0,-0.071898866371,-0.196905236845,0.918026393535,-0.335077641101,0.918026393535,-0.335077641101,-0.071898866371,-0.196905236845
9300000000.0,-0.0733800384873,-0.198643115807,0.916328627957,-0.338352916074,0.916328627957,-0.338352916074,-0.0733800384873,-0.198643115807
9400000000.0,-0.0748730392955,-0.200368335551,0.914616453088,-0.341616521933,0.914616453088,-0.341616521933,-0.0748730392955,-0.200368335551
9500000000.0,-0.0763777377726,-0.202080800486,0.912889992697,-0.344868369345,0.912889992697,-0.344868369345,-0.0763777377726,-0.202080800486
9600000000.0,-0.0778940021057,-0.203780416725,0.911149371279,-0.348108370659,0.911149371279,-0.348108370659,-0.0778940021057,-0.203780416725
9700000000.0,-0.0794216997201,-0.205467092098,0.909394714026,-0.351336439906,0.909394714026,-0.351336439906,-0.0794216997201,-0.205467092098
9800000000.0,-0.0809606973069,-0.207140736151,0.9076261468,-0.35455249281,0.9076261468,-0.35455249281,-0.0809606973069,-0.207140736151
9900000000.0,-0.0825108608505,-0.20880126016,0.905843796104,-0.357756446794,0.905843796104,-0.357756446794,-0.0825108608505,-0.20880126016
10000000000.0,-0.0840720556565,-0.210448577132,0.904047789058,-0.360948220983,0.904047789058,-0.360948220983,-0.0840720556565,-0.210448577132
