freq (GHz),S11_real,S11_imag,S21_real,S21_imag,S12_real,S12_imag,S22_real,S22_imag
100000000.0,0.0012736551696,-0.00289272617776,0.998685684002,-0.00509825411329,0.998685684002,-0.00509825411329,0.0012736551696,-0.00289272617776
200000000.0,0.00123423831062,-0.00578511239597,0.998621560111,-0.0101961069441,0.998621560111,-0.0101961069441,0.00123423831062,-0.00578511239597
300000000.0,0.00116307146548,-0.00867681118968,0.998525320145,-0.0152932506505,0.998525320145,-0.0152932506505,0.00116307146548,-0.00867681118968
400000000.0,0.00106128353766,-0.0115674813203,0.998395858166,-0.0203893624378,0.998395858166,-0.0203893624378,0.00106128353766,-0.0115674813203
500000000.0,0.000929320298179,-0.0144567821482,0.998232760584,-0.0254841148555,0.998232760584,-0.0254841148555,0.000929320298179,-0.0144567821482
600000000.0,0.000767421385662,-0.0173443731029,0.998035829231,-0.0305771780703,0.998035829231,-0.0305771780703,0.000767421385662,-0.0173443731029
700000000.0,0.000575741461236,-0.0202299136475,0.997804960256,-0.035668220869,0.997804960256,-0.035668220869,0.000575741461236,-0.0202299136475
800000000.0,0.000354394392032,-0.023113063353,0.997540099969,-0.0407569112289,0.997540099969,-0.0407569112289,0.000354394392032,-0.023113063353
900000000.0,0.000103472908056,-0.0259934820016,0.997241225207,-0.0458429166957,0.997241225207,-0.0458429166957,0.000103472908056,-0.0259934820016
1000000000.0,-0.00017694144378,-0.0288708296966,0.996908333387,-0.0509259046598,0.996908333387,-0.0509259046598,-0.00017694144378,-0.0288708296966
1100000000.0,-0.000486772773765,-0.0317447669724,0.996541436975,-0.0560055425755,0.996541436975,-0.0560055425755,-0.000486772773765,-0.0317447669724
1200000000.0,-0.000825947563385,-0.0346149549017,0.996140560201,-0.0610814981427,0.996140560201,-0.0610814981427,-0.000825947563385,-0.0346149549017
1300000000.0,-0.0011943926044,-0.0374810552004,0.99570573698,-0.0661534394653,0.99570573698,-0.0661534394653,-0.0011943926044,-0.0374810552004
1400000000.0,-0.00159203365079,-0.0403427303288,0.995237009544,-0.0712210351921,0.995237009544,-0.0712210351921,-0.00159203365079,-0.0403427303288
1500000000.0,-0.00201879450677,-0.0431996435911,0.994734427508,-0.0762839546464,0.994734427508,-0.0762839546464,-0.00201879450677,-0.0431996435911
1600000000.0,-0.00247459639325,-0.0460514592321,0.994198047205,-0.0813418679458,0.994198047205,-0.0813418679458,-0.00247459639325,-0.0460514592321
1700000000.0,-0.00295935749814,-0.0488978425312,0.993627931202,-0.0863944461152,0.993627931202,-0.0863944461152,-0.00295935749814,-0.0488978425312
1800000000.0,-0.00347299265233,-0.0517384598959,0.993024147939,-0.0914413611945,0.993024147939,-0.0914413611945,-0.00347299265233,-0.0517384598959
1900000000.0,-0.0040154130935,-0.0545729789522,0.992386771445,-0.0964822863414,0.992386771445,-0.0964822863414,-0.0040154130935,-0.0545729789522
2000000000.0,-0.0045865262932,-0.0574010686335,0.991715881124,-0.101516895931,0.991715881124,-0.101516895931,-0.0045865262932,-0.0574010686335
2100000000.0,-0.00518623583016,-0.0602223992689,0.991011561569,-0.106544865651,0.991011561569,-0.106544865651,-0.00518623583016,-0.0602223992689
2200000000.0,-0.00581444129845,-0.0630366426694,0.990273902421,-0.111565872597,0.990273902421,-0.111565872597,-0.00581444129845,-0.0630366426694
2300000000.0,-0.00647103824203,-0.0658434722121,0.989502998241,-0.11657959536,0.989502998241,-0.11657959536,-0.00647103824203,-0.0658434722121
2400000000.0,-0.00715591810994,-0.0686425629243,0.988698948402,-0.121585714118,0.988698948402,-0.121585714118,-0.00715591810994,-0.0686425629243
2500000000.0,-0.00786896822768,-0.0714335915653,0.987861856996,-0.126583910722,0.987861856996,-0.126583910722,-0.00786896822768,-0.0714335915653
2600000000.0,-0.00861007178163,-0.0742162367075,0.986991832743,-0.131573868778,0.986991832743,-0.131573868778,-0.00861007178163,-0.0742162367075
2700000000.0,-0.00937910781408,-0.0769901788158,0.986088988917,-0.136555273735,0.986088988917,-0.136555273735,-0.00937910781408,-0.0769901788158
2800000000.0,-0.0101759512269,-0.0797551003259,0.985153443271,-0.141527812959,0.985153443271,-0.141527812959,-0.0101759512269,-0.0797551003259
2900000000.0,-0.0110004727928,-0.0825106857213,0.984185317968,-0.146491175822,0.984185317968,-0.146491175822,-0.0110004727928,-0.0825106857213
3000000000.0,-0.0118525391724,-0.0852566216089,0.983184739511,-0.151445053769,0.983184739511,-0.151445053769,-0.0118525391724,-0.0852566216089
3100000000.0,-0.0127320129367,-0.0879925967938,0.982151838684,-0.156389140403,0.982151838684,-0.156389140403,-0.0127320129367,-0.0879925967938
3200000000.0,-0.0136387525946,-0.0907183023519,0.981086750485,-0.161323131558,0.981086750485,-0.161323131558,-0.0136387525946,-0.0907183023519
3300000000.0,-0.0145726126237,-0.0934334317021,0.979989614067,-0.166246725367,0.979989614067,-0.166246725367,-0.0145726126237,-0.0934334317021
3400000000.0,-0.0155334435056,-0.0961376806766,0.978860572674,-0.171159622342,0.978860572674,-0.171159622342,-0.0155334435056,-0.0961376806766
3500000000.0,-0.016521091763,-0.0988307475902,0.977699773584,-0.176061525438,0.977699773584,-0.176061525438,-0.016521091763,-0.0988307475902
3600000000.0,-0.0175354000015,-0.101512333308,0.976507368045,-0.180952140126,0.976507368045,-0.180952140126,-0.0175354000015,-0.101512333308
3700000000.0,-0.0185762069522,-0.104182141311,0.975283511215,-0.185831174455,0.975283511215,-0.185831174455,-0.0185762069522,-0.104182141311
3800000000.0,-0.0196433475179,-0.106839877763,0.974028362104,-0.190698339126,0.974028362104,-0.190698339126,-0.0196433475179,-0.106839877763
3900000000.0,-0.020736652821,-0.109485251573,0.972742083507,-0.195553347548,0.972742083507,-0.195553347548,-0.020736652821,-0.109485251573
4000000000.0,-0.0218559502532,-0.112117974456,0.971424841948,-0.200395915906,0.971424841948,-0.200395915906,-0.0218559502532,-0.112117974456
4100000000.0,-0.0230010635275,-0.114737760998,0.970076807615,-0.20522576322,0.970076807615,-0.20522576322,-0.0230010635275,-0.114737760998
4200000000.0,-0.0241718127316,-0.117344328709,0.968698154297,-0.210042611408,0.968698154297,-0.210042611408,-0.0241718127316,-0.117344328709
4300000000.0,-0.0253680143833,-0.119937398088,0.96728905932,-0.214846185339,0.96728905932,-0.214846185339,-0.0253680143833,-0.119937398088
4400000000.0,-0.0265894814865,-0.122516692672,0.965849703486,-0.219636212894,0.965849703486,-0.219636212894,-0.0265894814865,-0.122516692672
4500000000.0,-0.0278360235895,-0.125081939098,0.964380271007,-0.224412425019,0.964380271007,-0.224412425019,-0.0278360235895,-0.125081939098
4600000000.0,-0.0291074468447,-0.127632867151,0.962880949436,-0.22917455578,0.962880949436,-0.22917455578,-0.0291074468447,-0.127632867151
4700000000.0,-0.0304035540683,-0.130169209817,0.961351929608,-0.233922342415,0.961351929608,-0.233922342415,-0.0304035540683,-0.130169209817
4800000000.0,-0.0317241448025,-0.132690703334,0.959793405568,-0.238655525382,0.959793405568,-0.238655525382,-0.0317241448025,-0.132690703334
4900000000.0,-0.0330690153784,-0.135197087243,0.958205574505,-0.24337384841,0.958205574505,-0.24337384841,-0.0330690153784,-0.135197087243
5000000000.0,-0.034437958979,-0.13768810443,0.956588636686,-0.248077058547,0.956588636686,-0.248077058547,-0.034437958979,-0.13768810443
5100000000.0,-0.0358307657048,-0.140163501174,0.954942795386,-0.252764906203,0.954942795386,-0.252764906203,-0.0358307657048,-0.140163501174
5200000000.0,-0.0372472226387,-0.142623027192,0.95326825682,-0.257437145196,0.95326825682,-0.257437145196,-0.0372472226387,-0.142623027192
5300000000.0,-0.0386871139126,-0.145066435681,0.951565230071,-0.262093532794,0.951565230071,-0.262093532794,-0.0386871139126,-0.145066435681
5400000000.0,-0.0401502207747,-0.147493483357,0.949833927026,-0.266733829754,0.949833927026,-0.266733829754,-0.0401502207747,-0.147493483357
5500000000.0,-0.0416363216572,-0.149903930496,0.948074562299,-0.271357800366,0.948074562299,-0.271357800366,-0.0416363216572,-0.149903930496
5600000000.0,-0.0431451922448,-0.152297540971,0.946287353162,-0.275965212483,0.946287353162,-0.275965212483,-0.0431451922448,-0.152297540971
5700000000.0,-0.0446766055439,-0.154674082287,0.944472519476,-0.280555837564,0.944472519476,-0.280555837564,-0.0446766055439,-0.154674082287
5800000000.0,-0.0462303319523,-0.157033325617,0.942630283619,-0.285129450703,0.942630283619,-0.285129450703,-0.0462303319523,-0.157033325617
5900000000.0,-0.0478061393293,-0.159375045833,0.940760870409,-0.289685830665,0.940760870409,-0.289685830665,-0.0478061393293,-0.159375045833
6000000000.0,-0.0494037930664,-0.161699021539,0.938864507038,-0.294224759916,0.938864507038,-0.294224759916,-0.0494037930664,-0.161699021539
6100000000.0,-0.0510230561581,-0.164005035097,0.936941422996,-0.298746024651,0.936941422996,-0.298746024651,-0.0510230561581,-0.164005035097
6200000000.0,-0.0526636892736,-0.16629287266,0.934991849998,-0.303249414822,0.934991849998,-0.303249414822,-0.0526636892736,-0.16629287266
6300000000.0,-0.0543254508286,-0.168562324193,0.933016021912,-0.307734724167,0.933016021912,-0.307734724167,-0.0543254508286,-0.168562324193
6400000000.0,-0.0560080970567,-0.170813183501,0.931014174685,-0.312201750228,0.931014174685,-0.312201750228,-0.0560080970567,-0.170813183501
6500000000.0,-0.0577113820822,-0.173045248251,0.92898654627,-0.316650294381,0.92898654627,-0.316650294381,-0.0577113820822,-0.173045248251
6600000000.0,-0.0594350579923,-0.175258319991,0.926933376552,-0.321080161853,0.926933376552,-0.321080161853,-0.0594350579923,-0.175258319991
6700000000.0,-0.0611788749093,-0.177452204175,0.924854907273,-0.325491161741,0.924854907273,-0.325491161741,-0.0611788749093,-0.177452204175
6800000000.0,-0.0629425810638,-0.179626710175,0.922751381961,-0.329883107032,0.922751381961,-0.329883107032,-0.0629425810638,-0.179626710175
6900000000.0,-0.0647259228668,-0.181781651304,0.920623045856,-0.33425581462,0.920623045856,-0.33425581462,-0.0647259228668,-0.181781651304
7000000000.0,-0.066528644983,-0.183916844825,0.918470145832,-0.338609105316,0.918470145832,-0.338609105316,-0.066528644983,-0.183916844825
7100000000.0,-0.0683504904027,-0.186032111967,0.916292930331,-0.342942803868,0.916292930331,-0.342942803868,-0.0683504904027,-0.186032111967
7200000000.0,-0.0701912005152,-0.188127277939,0.914091649282,-0.347256738964,0.914091649282,-0.347256738964,-0.0701912005152,-0.188127277939
7300000000.0,-0.0720505151807,-0.190202171937,0.911866554033,-0.351550743253,0.911866554033,-0.351550743253,-0.0720505151807,-0.190202171937
7400000000.0,-0.073928172803,-0.192256627154,0.909617897274,-0.355824653342,0.909617897274,-0.355824653342,-0.073928172803,-0.192256627154
7500000000.0,-0.0758239104015,-0.194290480786,0.907345932966,-0.360078309812,0.907345932966,-0.360078309812,-0.0758239104015,-0.194290480786
7600000000.0,-0.0777374636834,-0.196303574043,0.905050916269,-0.364311557216,0.905050916269,-0.364311557216,-0.0777374636834,-0.196303574043
7700000000.0,-0.0796685671151,-0.198295752146,0.902733103469,-0.368524244091,0.902733103469,-0.368524244091,-0.0796685671151,-0.198295752146
7800000000.0,-0.0816169539939,-0.200266864333,0.900392751904,-0.372716222953,0.900392751904,-0.372716222953,-0.0816169539939,-0.200266864333
7900000000.0,-0.0835823565191,-0.202216763862,0.898030119894,-0.376887350301,0.898030119894,-0.376887350301,-0.0835823565191,-0.202216763862
8000000000.0,-0.0855645058626,-0.20414530801,0.895645466669,-0.381037486619,0.895645466669,-0.381037486619,-0.0855645058626,-0.20414530801
8100000000.0,-0.0875631322397,-0.20605235807,0.893239052298,-0.385166496368,0.893239052298,-0.385166496368,-0.0875631322397,-0.20605235807
8200000000.0,-0.0895779649786,-0.207937779347,0.890811137621,-0.389274247989,0.890811137621,-0.389274247989,-0.0895779649786,-0.207937779347
8300000000.0,-0.0916087325903,-0.209801441159,0.888361984172,-0.393360613896,0.888361984172,-0.393360613896,-0.0916087325903,-0.209801441159
8400000000.0,-0.0936551628374,-0.211643216826,0.885891854117,-0.397425470466,0.885891854117,-0.397425470466,-0.0936551628374,-0.211643216826
8500000000.0,-0.0957169828031,-0.213462983666,0.883401010181,-0.401468698039,0.883401010181,-0.401468698039,-0.0957169828031,-0.213462983666
8600000000.0,-0.0977939189586,-0.215260622985,0.880889715578,-0.405490180902,0.880889715578,-0.405490180902,-0.0977939189586,-0.215260622985
8700000000.0,-0.0998856972314,-0.217036020068,0.878358233946,-0.409489807284,0.878358233946,-0.409489807284,-0.0998856972314,-0.217036020068
8800000000.0,-0.101992043071,-0.218789064167,0.87580682928,-0.413467469343,0.87580682928,-0.413467469343,-0.101992043071,-0.218789064167
8900000000.0,-0.104112681517,-0.220519648493,0.873235765862,-0.417423063151,0.873235765862,-0.417423063151,-0.104112681517,-0.220519648493
9000000000.0,-0.106247337263,-0.222227670196,0.870645308196,-0.421356488683,0.870645308196,-0.421356488683,-0.106247337263,-0.222227670196
9100000000.0,-0.108395734723,-0.223913030356,0.868035720942,-0.425267649803,0.868035720942,-0.425267649803,-0.108395734723,-0.223913030356
9200000000.0,-0.110557598093,-0.225575633964,0.865407268856,-0.429156454243,0.865407268856,-0.429156454243,-0.110557598093,-0.225575633964
9300000000.0,-0.112732651418,-0.227215389906,0.862760216718,-0.433022813589,0.862760216718,-0.433022813589,-0.112732651418,-0.227215389906
9400000000.0,-0.114920618656,-0.228832210945,0.860094829273,-0.436866643264,0.860094829273,-0.436866643264,-0.114920618656,-0.228832210945
9500000000.0,-0.117121223732,-0.230426013702,0.85741137117,-0.440687862502,0.85741137117,-0.440687862502,-0.117121223732,-0.230426013702
9600000000.0,-0.11933419061,-0.231996718636,0.854710106896,-0.444486394334,0.854710106896,-0.444486394334,-0.11933419061,-0.231996718636
9700000000.0,-0.121559243346,-0.233544250021,0.851991300717,-0.448262165561,0.851991300717,-0.448262165561,-0.121559243346,-0.233544250021
9800000000.0,-0.123796106151,-0.235068535924,0.849255216619,-0.452015106735,0.849255216619,-0.452015106735,-0.123796106151,-0.235068535924
9900000000.0,-0.12604450345,-0.236569508184,0.846502118246,-0.455745152133,0.846502118246,-0.455745152133,-0.12604450345,-0.236569508184
10000000000.0,-0.128304159938,-0.238047102384,0.843732268844,-0.459452239731,0.843732268844,-0.459452239731,-0.128304159938,-0.238047102384
