freq (GHz),S11_real,S11_imag,S21_real,S21_imag,S12_real,S12_imag,S22_real,S22_imag
100000000.0,0.000129843199669,-0.00110678067215,0.999861319292,-0.00200338304264,0.999861319292,-0.00200338304264,0.000129843199669,-0.00110678067215
200000000.0,0.000122595304245,-0.00221363473232,0.999851054478,-0.00400687711606,0.999851054478,-0.00400687711606,0.000122595304245,-0.00221363473232
300000000.0,0.00011067678557,-0.00332059181032,0.999835781981,-0.00601053426077,0.999835781981,-0.00601053426077,0.00011067678557,-0.00332059181032
400000000.0,9.42015707637e-05,-0.00442766912293,0.999815383886,-0.00801438856315,0.999815383886,-0.00801438856315,9.42015707639e-05,-0.00442766912293
500000000.0,7.32119534286e-05,-0.00553487725878,0.999789813254,-0.0100184649515,0.999789813254,-0.0100184649515,7.32119534286e-05,-0.00553487725878
600000000.0,4.77281366758e-05,-0.00664222230104,0.999759044725,-0.0120227822566,0.999759044725,-0.0120227822566,4.77281366755e-05,-0.00664222230104
700000000.0,1.77608430199e-05,-0.00774970693574,0.999723062005,-0.0140273547809,0.999723062005,-0.0140273547809,1.77608430199e-05,-0.00774970693574
800000000.0,-1.66840685079e-05,-0.00885733112786,0.999681853334,-0.0160321932442,0.999681853334,-0.0160321932442,-1.6684068508e-05,-0.00885733112786
900000000.0,-5.56035346201e-05,-0.00996509257649,0.999635409483,-0.0180373054144,0.999635409483,-0.0180373054144,-5.56035346204e-05,-0.00996509257649
1000000000.0,-9.89962301878e-05,-0.0110729870407,0.999583722749,-0.0200426965541,0.999583722749,-0.0200426965541,-9.89962301875e-05,-0.0110729870407
1100000000.0,-0.000146861972742,-0.0121810085852,0.999526786411,-0.0220483697558,0.999526786411,-0.0220483697558,-0.000146861972742,-0.0121810085852
1200000000.0,-0.000199201361508,-0.0132891497719,0.99946459441,-0.0240543262007,0.99946459441,-0.0240543262007,-0.000199201361508,-0.0132891497719
1300000000.0,-0.000256015545205,-0.0143974018137,0.999397141153,-0.0260605653646,0.999397141153,-0.0260605653646,-0.000256015545205,-0.0143974018137
1400000000.0,-0.000317306065209,-0.015505754701,0.999324421391,-0.0280670851866,0.999324421391,-0.0280670851866,-0.000317306065209,-0.015505754701
1500000000.0,-0.00038307474511,-0.0166141973078,0.999246430141,-0.0300738822096,0.999246430141,-0.0300738822096,-0.00038307474511,-0.0166141973078
1600000000.0,-0.000453323610103,-0.0177227174824,0.99916316263,-0.0320809516991,0.99916316263,-0.0320809516991,-0.000453323610103,-0.0177227174824
1700000000.0,-0.0005280548263,-0.0188313021248,0.99907461426,-0.0340882877447,0.99907461426,-0.0340882877447,-0.0005280548263,-0.0188313021248
1800000000.0,-0.000607270653748,-0.019939937256,0.998980780587,-0.0360958833492,0.998980780587,-0.0360958833492,-0.000607270653747,-0.019939937256
1900000000.0,-0.000690973409184,-0.0210486080776,0.998881657305,-0.0381037305061,0.998881657305,-0.0381037305061,-0.000690973409184,-0.0210486080776
2000000000.0,-0.000779165435867,-0.0221572990257,0.998777240235,-0.0401118202686,0.998777240235,-0.0401118202686,-0.000779165435867,-0.0221572990257
2100000000.0,-0.00087184907866,-0.0232659938195,0.998667525318,-0.0421201428111,0.998667525318,-0.0421201428111,-0.00087184907866,-0.0232659938195
2200000000.0,-0.000969026663129,-0.0243746755051,0.998552508616,-0.0441286874846,0.998552508616,-0.0441286874846,-0.000969026663129,-0.0243746755051
2300000000.0,-0.00107070047772,-0.0254833264945,0.998432186305,-0.0461374428669,0.998432186305,-0.0461374428669,-0.00107070047772,-0.0254833264945
2400000000.0,-0.00117687275842,-0.0265919286034,0.998306554678,-0.0481463968083,0.998306554678,-0.0481463968083,-0.00117687275842,-0.0265919286034
2500000000.0,-0.00128754567529,-0.0277004630832,0.998175610146,-0.0501555364732,0.998175610146,-0.0501555364732,-0.00128754567529,-0.0277004630832
2600000000.0,-0.00140272132071,-0.0288089106534,0.998039349241,-0.0521648483787,0.998039349241,-0.0521648483787,-0.00140272132071,-0.0288089106534
2700000000.0,-0.00152240169881,-0.0299172515291,0.997897768613,-0.0541743184302,0.997897768613,-0.0541743184302,-0.00152240169881,-0.0299172515291
2800000000.0,-0.00164658871612,-0.0310254654485,0.997750865038,-0.056183931954,0.997750865038,-0.056183931954,-0.00164658871612,-0.0310254654485
2900000000.0,-0.00177528417306,-0.0321335316978,0.99759863542,-0.0581936737281,0.99759863542,-0.0581936737281,-0.00177528417306,-0.0321335316978
3000000000.0,-0.00190848975622,-0.0332414291343,0.997441076789,-0.0602035280106,0.997441076789,-0.0602035280106,-0.00190848975622,-0.0332414291343
3100000000.0,-0.00204620703144,-0.0343491362085,0.997278186311,-0.0622134785667,0.997278186311,-0.0622134785667,-0.00204620703144,-0.0343491362085
3200000000.0,-0.00218843743733,-0.0354566309849,0.997109961287,-0.0642235086933,0.997109961287,-0.0642235086933,-0.00218843743733,-0.0354566309849
3300000000.0,-0.00233518227946,-0.0365638911615,0.996936399154,-0.066233601243,0.996936399154,-0.066233601243,-0.00233518227946,-0.0365638911615
3400000000.0,-0.00248644272489,-0.0376708940882,0.996757497494,-0.0682437386458,0.996757497494,-0.0682437386458,-0.00248644272489,-0.0376708940882
3500000000.0,-0.00264221979724,-0.0387776167842,0.99657325403,-0.0702539029306,0.99657325403,-0.0702539029306,-0.00264221979724,-0.0387776167842
3600000000.0,-0.00280251437202,-0.039884035955,0.996383666633,-0.0722640757447,0.996383666633,-0.0722640757447,-0.00280251437202,-0.039884035955
3700000000.0,-0.00296732717242,-0.0409901280076,0.996188733326,-0.0742742383727,0.996188733326,-0.0742742383727,-0.00296732717242,-0.0409901280076
3800000000.0,-0.00313665876526,-0.0420958690661,0.995988452281,-0.0762843717543,0.995988452281,-0.0762843717543,-0.00313665876526,-0.0420958690661
3900000000.0,-0.00331050955738,-0.0432012349857,0.995782821826,-0.0782944565013,0.995782821826,-0.0782944565013,-0.00331050955738,-0.0432012349857
4000000000.0,-0.0034888797922,-0.0443062013664,0.995571840447,-0.0803044729137,0.995571840447,-0.0803044729137,-0.0034888797922,-0.0443062013664
4100000000.0,-0.00367176954651,-0.0454107435663,0.995355506788,-0.0823144009952,0.995355506788,-0.0823144009952,-0.00367176954651,-0.0454107435663
4200000000.0,-0.00385917872752,-0.0465148367139,0.995133819656,-0.0843242204677,0.995133819656,-0.0843242204677,-0.00385917872752,-0.0465148367139
4300000000.0,-0.00405110707012,-0.04761845572,0.99490677802,-0.0863339107857,0.99490677802,-0.0863339107857,-0.00405110707012,-0.04761845572
4400000000.0,-0.00424755413429,-0.0487215752896,0.994674381015,-0.0883434511493,0.994674381015,-0.0883434511493,-0.00424755413429,-0.0487215752896
4500000000.0,-0.00444851930275,-0.0498241699326,0.994436627944,-0.0903528205173,0.994436627944,-0.0903528205173,-0.00444851930275,-0.0498241699326
4600000000.0,-0.0046540017787,-0.0509262139743,0.994193518278,-0.0923619976195,0.994193518278,-0.0923619976195,-0.0046540017787,-0.0509262139743
4700000000.0,-0.00486400058379,-0.0520276815661,0.99394505166,-0.0943709609687,0.99394505166,-0.0943709609687,-0.00486400058379,-0.0520276815661
4800000000.0,-0.00507851455623,-0.0531285466947,0.993691227905,-0.0963796888715,0.993691227905,-0.0963796888715,-0.00507851455623,-0.0531285466947
4900000000.0,-0.00529754234895,-0.054228783192,0.993432047,-0.09838815944,0.993432047,-0.09838815944,-0.00529754234895,-0.054228783192
5000000000.0,-0.00552108242806,-0.055328364744,0.993167509108,-0.100396350601,0.993167509108,-0.100396350601,-0.00552108242806,-0.055328364744
5100000000.0,-0.00574913307125,-0.0564272648993,0.99289761457,-0.102404240109,0.99289761457,-0.102404240109,-0.00574913307125,-0.0564272648993
5200000000.0,-0.00598169236645,-0.0575254570784,0.9926223639,-0.104411805551,0.9926223639,-0.104411805551,-0.00598169236645,-0.0575254570784
5300000000.0,-0.00621875821056,-0.0586229145808,0.992341757796,-0.106419024361,0.992341757796,-0.106419024361,-0.00621875821056,-0.0586229145808
5400000000.0,-0.00646032830821,-0.0597196105936,0.99205579713,-0.108425873826,0.99205579713,-0.108425873826,-0.00646032830821,-0.0597196105936
5500000000.0,-0.00670640017079,-0.0608155181991,0.991764482957,-0.110432331094,0.991764482957,-0.110432331094,-0.00670640017079,-0.0608155181991
5600000000.0,-0.00695697111538,-0.0619106103817,0.991467816514,-0.112438373188,0.991467816514,-0.112438373188,-0.00695697111538,-0.0619106103817
5700000000.0,-0.00721203826395,-0.0630048600356,0.991165799217,-0.114443977004,0.991165799217,-0.114443977004,-0.00721203826395,-0.0630048600356
5800000000.0,-0.00747159854252,-0.0640982399715,0.990858432666,-0.116449119331,0.990858432666,-0.116449119331,-0.00747159854252,-0.0640982399715
5900000000.0,-0.00773564868047,-0.0651907229229,0.990545718645,-0.118453776848,0.990545718645,-0.118453776848,-0.00773564868047,-0.0651907229229
6000000000.0,-0.00800418520994,-0.0662822815532,0.99022765912,-0.120457926138,0.99022765912,-0.120457926138,-0.00800418520994,-0.0662822815532
6100000000.0,-0.00827720446522,-0.0673728884617,0.989904256242,-0.122461543691,0.989904256242,-0.122461543691,-0.00827720446522,-0.0673728884617
6200000000.0,-0.00855470258236,-0.0684625161895,0.989575512345,-0.124464605914,0.989575512345,-0.124464605914,-0.00855470258236,-0.0684625161895
6300000000.0,-0.00883667549868,-0.069551137226,0.989241429949,-0.126467089137,0.989241429949,-0.126467089137,-0.00883667549868,-0.069551137226
6400000000.0,-0.00912311895254,-0.0706387240137,0.988902011759,-0.128468969617,0.988902011759,-0.128468969617,-0.00912311895254,-0.0706387240137
6500000000.0,-0.00941402848296,-0.0717252489548,0.988557260664,-0.130470223547,0.988557260664,-0.130470223547,-0.00941402848296,-0.0717252489548
6600000000.0,-0.00970939942953,-0.0728106844158,0.98820717974,-0.13247082706,0.98820717974,-0.13247082706,-0.00970939942953,-0.0728106844158
6700000000.0,-0.0100092269321,-0.0738950027331,0.987851772247,-0.134470756239,0.987851772247,-0.134470756239,-0.0100092269321,-0.0738950027331
6800000000.0,-0.010313505931,-0.0749781762183,0.987491041632,-0.136469987115,0.987491041632,-0.136469987115,-0.010313505931,-0.0749781762183
6900000000.0,-0.0106222311667,-0.0760601771627,0.987124991524,-0.138468495681,0.987124991524,-0.138468495681,-0.0106222311667,-0.0760601771627
7000000000.0,-0.0109353971798,-0.0771409778425,0.986753625742,-0.140466257891,0.986753625742,-0.140466257891,-0.0109353971798,-0.0771409778425
7100000000.0,-0.0112529983115,-0.0782205505231,0.986376948286,-0.14246324967,0.986376948286,-0.14246324967,-0.0112529983115,-0.0782205505231
7200000000.0,-0.0115750287033,-0.0792988674643,0.985994963345,-0.144459446915,0.985994963345,-0.144459446915,-0.0115750287033,-0.0792988674643
7300000000.0,-0.0119014822976,-0.0803759009242,0.985607675289,-0.146454825502,0.985607675289,-0.146454825502,-0.0119014822976,-0.0803759009242
7400000000.0,-0.0122323528375,-0.0814516231637,0.985215088676,-0.14844936129,0.985215088676,-0.14844936129,-0.0122323528375,-0.0814516231637
7500000000.0,-0.0125676338671,-0.0825260064507,0.984817208246,-0.150443030128,0.984817208246,-0.150443030128,-0.0125676338671,-0.0825260064507
7600000000.0,-0.0129073187323,-0.0835990230643,0.984414038924,-0.152435807855,0.984414038924,-0.152435807855,-0.0129073187323,-0.0835990230643
7700000000.0,-0.0132514005806,-0.0846706452988,0.984005585819,-0.154427670309,0.984005585819,-0.154427670309,-0.0132514005806,-0.0846706452988
7800000000.0,-0.0135998723617,-0.0857408454675,0.983591854221,-0.156418593328,0.983591854221,-0.156418593328,-0.0135998723617,-0.0857408454675
7900000000.0,-0.0139527268281,-0.0868095959066,0.983172849605,-0.158408552756,0.983172849605,-0.158408552756,-0.0139527268281,-0.0868095959066
8000000000.0,-0.0143099565351,-0.0878768689789,0.982748577628,-0.160397524447,0.982748577628,-0.160397524447,-0.0143099565351,-0.0878768689789
8100000000.0,-0.0146715538419,-0.0889426370773,0.982319044128,-0.162385484268,0.982319044128,-0.162385484268,-0.0146715538419,-0.0889426370773
8200000000.0,-0.0150375109118,-0.0900068726286,0.981884255125,-0.164372408103,0.981884255125,-0.164372408103,-0.0150375109118,-0.0900068726286
8300000000.0,-0.0154078197127,-0.0910695480967,0.981444216818,-0.166358271856,0.981444216818,-0.166358271856,-0.0154078197127,-0.0910695480967
8400000000.0,-0.0157824720179,-0.0921306359862,0.980998935587,-0.168343051458,0.980998935587,-0.168343051458,-0.0157824720179,-0.0921306359862
8500000000.0,-0.0161614594067,-0.0931901088454,0.980548417992,-0.170326722867,0.980548417992,-0.170326722867,-0.0161614594067,-0.0931901088454
8600000000.0,-0.0165447732652,-0.0942479392698,0.98009267077,-0.172309262072,0.98009267077,-0.172309262072,-0.0165447732652,-0.0942479392698
8700000000.0,-0.0169324047865,-0.0953040999052,0.979631700837,-0.174290645098,0.979631700837,-0.174290645098,-0.0169324047865,-0.0953040999052
8800000000.0,-0.0173243449721,-0.0963585634506,0.979165515287,-0.176270848007,0.979165515287,-0.176270848007,-0.0173243449721,-0.0963585634506
8900000000.0,-0.0177205846323,-0.0974113026613,0.978694121388,-0.178249846905,0.978694121388,-0.178249846905,-0.0177205846323,-0.0974113026613
9000000000.0,-0.0181211143869,-0.0984622903519,0.978217526585,-0.180227617941,0.978217526585,-0.180227617941,-0.0181211143869,-0.0984622903519
9100000000.0,-0.0185259246663,-0.0995114993991,0.977735738498,-0.182204137311,0.977735738498,-0.182204137311,-0.0185259246663,-0.0995114993991
9200000000.0,-0.0189350057121,-0.100558902744,0.97724876492,-0.184179381263,0.97724876492,-0.184179381263,-0.0189350057121,-0.100558902744
9300000000.0,-0.0193483475781,-0.101604473397,0.976756613819,-0.186153326098,0.976756613819,-0.186153326098,-0.0193483475781,-0.101604473397
9400000000.0,-0.0197659401313,-0.102648184437,0.976259293332,-0.188125948175,0.976259293332,-0.188125948175,-0.0197659401313,-0.102648184437
9500000000.0,-0.0201877730523,-0.103690009017,0.97575681177,-0.190097223909,0.97575681177,-0.190097223909,-0.0201877730523,-0.103690009017
9600000000.0,-0.0206138358371,-0.104729920364,0.975249177613,-0.19206712978,0.975249177613,-0.19206712978,-0.0206138358371,-0.104729920364
9700000000.0,-0.0210441177971,-0.105767891785,0.97473639951,-0.194035642332,0.97473639951,-0.194035642332,-0.0210441177971,-0.105767891785
9800000000.0,-0.0214786080609,-0.106803896667,0.974218486279,-0.196002738174,0.974218486279,-0.196002738174,-0.0214786080609,-0.106803896667
9900000000.0,-0.0219172955748,-0.10783790848,0.973695446906,-0.197968393988,0.973695446906,-0.197968393988,-0.0219172955748,-0.10783790848
10000000000.0,-0.022360169104,-0.108869900778,0.973167290542,-0.199932586525,0.973167290542,-0.199932586525,-0.022360169104,-0.108869900778
