freq (GHz),S11_real,S11_imag,S21_real,S21_imag,S12_real,S12_imag,S22_real,S22_imag
100000000.0,0.0300489835181,0.00393296531153,0.969947289316,-0.00551196333001,0.969947289316,-0.00551196333001,0.0300489835181,0.00393296531153
200000000.0,0.0303082215998,0.00786155074057,0.969682804634,-0.0110195679406,0.969682804634,-0.0110195679406,0.0303082215998,0.00786155074057
300000000.0,0.0305602341825,0.0117866477804,0.969423025465,-0.0165237217421,0.969423025465,-0.0165237217421,0.0305602341825,0.0117866477804
400000000.0,0.0308303768889,0.0157081553227,0.969142595621,-0.0220243377576,0.969142595621,-0.0220243377576,0.0308303768889,0.0157081553227
500000000.0,0.0311283903609,0.0196257423679,0.968831773839,-0.0275210979634,0.968831773839,-0.0275210979634,0.0311283903609,0.0196257423679
600000000.0,0.0314592119105,0.0235389769917,0.968485622119,-0.0330135826527,0.968485622119,-0.0330135826527,0.0314592119105,0.0235389769917
700000000.0,0.0318257252585,0.0274473727916,0.968101255979,-0.0385013170853,0.968101255979,-0.0385013170853,0.0318257252585,0.0274473727916
800000000.0,0.0322297644881,0.0313504105433,0.967676840502,-0.0439837932645,0.967676840502,-0.0439837932645,0.0322297644881,0.0313504105433
900000000.0,0.0326725612132,0.0352475499325,0.967211143161,-0.0494604817502,0.967211143161,-0.0494604817502,0.0326725612132,0.0352475499325
1000000000.0,0.0331549713203,0.0391382365934,0.966703307083,-0.054930838753,0.966703307083,-0.054930838753,0.0331549713203,0.0391382365934
1100000000.0,0.0336776010641,0.04302190666,0.966152724949,-0.0603943107277,0.966152724949,-0.0603943107277,0.0336776010641,0.04302190666
1200000000.0,0.0342408822453,0.0468979898895,0.965558963819,-0.0658503375286,0.965558963819,-0.0658503375286,0.0342408822453,0.0468979898895
1300000000.0,0.0348451195444,0.0507659119113,0.964921717796,-0.0712983546834,0.964921717796,-0.0712983546834,0.0348451195444,0.0507659119113
1400000000.0,0.0354905216675,0.0546250959137,0.964240776886,-0.0767377951003,0.964240776886,-0.0767377951003,0.0354905216675,0.0546250959137
1500000000.0,0.0361772226019,0.0584749639534,0.963516005733,-0.0821680903944,0.963516005733,-0.0821680903944,0.0361772226019,0.0584749639534
1600000000.0,0.0369052965776,0.062314938004,0.96274732867,-0.0875886719499,0.96274732867,-0.0875886719499,0.0369052965776,0.062314938004
1700000000.0,0.0376747688799,0.0661444408176,0.961934718895,-0.0929989717931,0.961934718895,-0.0929989717931,0.0376747688799,0.0661444408176
1800000000.0,0.0384856238495,0.0699628966489,0.961078190481,-0.0983984233277,0.961078190481,-0.0983984233277,0.0384856238495,0.0699628966489
1900000000.0,0.0393378109231,0.073769731877,0.96017779233,-0.103786461964,0.96017779233,-0.103786461964,0.0393378109231,0.073769731877
2000000000.0,0.0402312492811,0.0775643755487,0.959233603527,-0.109162525672,0.959233603527,-0.109162525672,0.0402312492811,0.0775643755487
2100000000.0,0.0411658314844,0.0813462598588,0.958245729705,-0.114526055465,0.958245729705,-0.114526055465,0.0411658314844,0.0813462598588
2200000000.0,0.0421414263651,0.0851148205828,0.957214300153,-0.119876495841,0.957214300153,-0.119876495841,0.0421414263651,0.0851148205828
2300000000.0,0.0431578813584,0.0888694974691,0.956139465485,-0.125213295181,0.956139465485,-0.125213295181,0.0431578813584,0.0888694974691
2400000000.0,0.0442150244104,0.0926097345985,0.955021395733,-0.13053590611,0.955021395733,-0.13053590611,0.0442150244104,0.0926097345985
2500000000.0,0.0453126655583,0.0963349807159,0.953860278765,-0.135843785835,0.953860278765,-0.135843785835,0.0453126655583,0.0963349807159
2600000000.0,0.0464505982583,0.10004468954,0.952656318962,-0.14113639646,0.952656318962,-0.14113639646,0.0464505982583,0.10004468954
2700000000.0,0.0476286005134,0.10373832005,0.951409736086,-0.146413205273,0.951409736086,-0.146413205273,0.0476286005134,0.10373832005
2800000000.0,0.048846435843,0.107415336758,0.95012076431,-0.151673685026,0.95012076431,-0.151673685026,0.048846435843,0.107415336758
2900000000.0,0.0501038541278,0.111075209964,0.948789651379,-0.156917314189,0.948789651379,-0.156917314189,0.0501038541278,0.111075209964
3000000000.0,0.0514005923516,0.114717415998,0.947416657864,-0.162143577194,0.947416657864,-0.162143577194,0.0514005923516,0.114717415998
3100000000.0,0.0527363752617,0.118341437444,0.946002056502,-0.16735196467,0.946002056502,-0.16735196467,0.0527363752617,0.118341437444
3200000000.0,0.0541109159628,0.121946763362,0.944546131602,-0.172541973656,0.944546131602,-0.172541973656,0.0541109159628,0.121946763362
3300000000.0,0.0555239164543,0.12553288949,0.943049178513,-0.177713107814,0.943049178513,-0.177713107814,0.0555239164543,0.12553288949
3400000000.0,0.0569750681241,0.12909931844,0.941511503122,-0.182864877621,0.941511503122,-0.182864877621,0.0569750681241,0.12909931844
3500000000.0,0.0584640522033,0.132645559884,0.939933421406,-0.187996800562,0.939933421406,-0.187996800562,0.0584640522033,0.132645559884
3600000000.0,0.0599905401905,0.13617113073,0.938315259006,-0.193108401305,0.938315259006,-0.193108401305,0.0599905401905,0.13617113073
3700000000.0,0.0615541942494,0.139675555289,0.936657350828,-0.19819921187,0.936657350828,-0.19819921187,0.0615541942494,0.139675555289
3800000000.0,0.0631546675849,0.143158365433,0.93496004067,-0.203268771789,0.93496004067,-0.203268771789,0.0631546675849,0.143158365433
3900000000.0,0.0647916047998,0.146619100748,0.933223680862,-0.20831662826,0.933223680862,-0.20831662826,0.0647916047998,0.146619100748
4000000000.0,0.0664646422365,0.150057308675,0.931448631927,-0.21334233629,0.931448631927,-0.21334233629,0.0664646422365,0.150057308675
4100000000.0,0.0681734083045,0.153472544643,0.929635262253,-0.21834545883,0.929635262253,-0.21834545883,0.0681734083045,0.153472544643
4200000000.0,0.0699175237973,0.156864372199,0.927783947776,-0.223325566904,0.927783947776,-0.223325566904,0.0699175237973,0.156864372199
4300000000.0,0.0716966021981,0.160232363126,0.925895071673,-0.228282239732,0.925895071673,-0.228282239732,0.0716966021981,0.160232363126
4400000000.0,0.0735102499783,0.163576097555,0.923969024067,-0.233215064838,0.923969024067,-0.233215064838,0.0735102499783,0.163576097555
4500000000.0,0.0753580668869,0.166895164071,0.922006201734,-0.238123638162,0.922006201734,-0.238123638162,0.0753580668869,0.166895164071
4600000000.0,0.0772396462349,0.170189159808,0.920007007822,-0.243007564155,0.920007007822,-0.243007564155,0.0772396462349,0.170189159808
4700000000.0,0.0791545751725,0.173457690544,0.91797185157,-0.24786645587,0.91797185157,-0.24786645587,0.0791545751725,0.173457690544
4800000000.0,0.081102434962,0.176700370782,0.915901148038,-0.252699935053,0.915901148038,-0.252699935053,0.081102434962,0.176700370782
4900000000.0,0.0830828012452,0.179916823827,0.913795317841,-0.257507632212,0.913795317841,-0.257507632212,0.0830828012452,0.179916823827
5000000000.0,0.0850952443072,0.183106681858,0.91165478688,-0.262289186695,0.91165478688,-0.262289186695,0.0850952443072,0.183106681858
5100000000.0,0.0871393293359,0.18626958599,0.909479986088,-0.267044246754,0.909479986088,-0.267044246754,0.0871393293359,0.18626958599
5200000000.0,0.0892146166779,0.189405186332,0.907271351171,-0.271772469599,0.907271351171,-0.271772469599,0.0892146166779,0.189405186332
5300000000.0,0.0913206620905,0.192513142038,0.905029322357,-0.276473521452,0.905029322357,-0.276473521452,0.0913206620905,0.192513142038
5400000000.0,0.0934570169916,0.195593121352,0.902754344145,-0.281147077594,0.902754344145,-0.281147077594,0.0934570169916,0.195593121352
5500000000.0,0.095623228705,0.198644801644,0.900446865061,-0.285792822401,0.900446865061,-0.285792822401,0.095623228705,0.198644801644
5600000000.0,0.0978188407038,0.201667869443,0.898107337416,-0.290410449376,0.898107337416,-0.290410449376,0.0978188407038,0.201667869443
5700000000.0,0.10004339285,0.204662020465,0.895736217062,-0.294999661181,0.895736217062,-0.294999661181,0.10004339285,0.204662020465
5800000000.0,0.102296421633,0.207626959629,0.893333963158,-0.29956016965,0.893333963158,-0.29956016965,0.102296421633,0.207626959629
5900000000.0,0.104577460402,0.210562401075,0.890901037934,-0.30409169581,0.890901037934,-0.30409169581,0.104577460402,0.210562401075
6000000000.0,0.106886039598,0.213468068169,0.888437906463,-0.308593969887,0.888437906463,-0.308593969887,0.106886039598,0.213468068169
6100000000.0,0.109221686982,0.216343693509,0.885945036426,-0.31306673131,0.885945036426,-0.31306673131,0.109221686982,0.216343693509
6200000000.0,0.111583927863,0.219189018919,0.883422897894,-0.317509728706,0.883422897894,-0.317509728706,0.111583927863,0.219189018919
6300000000.0,0.113972285318,0.222003795443,0.880871963098,-0.321922719898,0.880871963098,-0.321922719898,0.113972285318,0.222003795443
6400000000.0,0.116386280411,0.22478778333,0.878292706215,-0.326305471887,0.878292706215,-0.326305471887,0.116386280411,0.22478778333
6500000000.0,0.118825432413,0.227540752015,0.875685603148,-0.330657760835,0.875685603148,-0.330657760835,0.118825432413,0.227540752015
6600000000.0,0.121289259015,0.230262480096,0.873051131311,-0.334979372043,0.873051131311,-0.334979372043,0.121289259015,0.230262480096
6700000000.0,0.123777276538,0.232952755306,0.870389769421,-0.339270099918,0.870389769421,-0.339270099918,0.123777276538,0.232952755306
6800000000.0,0.126289000139,0.235611374476,0.867701997291,-0.343529747946,0.867701997291,-0.343529747946,0.126289000139,0.235611374476
6900000000.0,0.128823944018,0.238238143498,0.86498829562,-0.347758128649,0.86498829562,-0.347758128649,0.128823944018,0.238238143498
7000000000.0,0.13138162162,0.240832877284,0.862249145797,-0.351955063545,0.862249145797,-0.351955063545,0.13138162162,0.240832877284
7100000000.0,0.133961545829,0.243395399715,0.859485029701,-0.356120383098,0.859485029701,-0.356120383098,0.133961545829,0.243395399715
7200000000.0,0.136563229168,0.24592554359,0.856696429507,-0.36025392667,0.856696429507,-0.36025392667,0.136563229168,0.24592554359
7300000000.0,0.139186183986,0.248423150572,0.853883827491,-0.364355542461,0.853883827491,-0.364355542461,0.139186183986,0.248423150572
7400000000.0,0.141829922647,0.250888071123,0.851047705847,-0.368425087453,0.851047705847,-0.368425087453,0.141829922647,0.250888071123
7500000000.0,0.144493957715,0.253320164443,0.8481885465,-0.372462427343,0.8481885465,-0.372462427343,0.144493957715,0.253320164443
7600000000.0,0.147177802136,0.255719298404,0.845306830925,-0.376467436475,0.845306830925,-0.376467436475,0.147177802136,0.255719298404
7700000000.0,0.149880969413,0.258085349471,0.842403039969,-0.380439997772,0.842403039969,-0.380439997772,0.149880969413,0.258085349471
7800000000.0,0.152602973781,0.260418202633,0.839477653679,-0.384380002657,0.839477653679,-0.384380002657,0.152602973781,0.260418202633
7900000000.0,0.155343330376,0.262717751321,0.836531151128,-0.388287350976,0.836531151128,-0.388287350976,0.155343330376,0.262717751321
8000000000.0,0.158101555404,0.264983897326,0.833564010256,-0.392161950915,0.833564010256,-0.392161950915,0.158101555404,0.264983897326
8100000000.0,0.160877166301,0.267216550713,0.830576707696,-0.396003718915,0.830576707696,-0.396003718915,0.160877166301,0.267216550713
8200000000.0,0.163669681892,0.269415629736,0.827569718627,-0.399812579586,0.827569718627,-0.399812579586,0.163669681892,0.269415629736
8300000000.0,0.166478622549,0.27158106074,0.824543516609,-0.403588465614,0.824543516609,-0.403588465614,0.166478622549,0.27158106074
8400000000.0,0.169303510336,0.273712778074,0.821498573437,-0.407331317664,0.821498573437,-0.407331317664,0.169303510336,0.273712778074
8500000000.0,0.172143869167,0.275810723988,0.818435358991,-0.41104108429,0.818435358991,-0.41104108429,0.172143869167,0.275810723988
8600000000.0,0.174999224937,0.277874848538,0.815354341094,-0.41471772183,0.815354341094,-0.41471772183,0.174999224937,0.277874848538
8700000000.0,0.177869105671,0.27990510948,0.812255985371,-0.418361194308,0.812255985371,-0.418361194308,0.177869105671,0.27990510948
8800000000.0,0.180753041658,0.281901472171,0.809140755111,-0.421971473326,0.809140755111,-0.421971473326,0.180753041658,0.281901472171
8900000000.0,0.183650565579,0.283863909457,0.806009111139,-0.425548537964,0.806009111139,-0.425548537964,0.183650565579,0.283863909457
9000000000.0,0.18656121264,0.28579240157,0.802861511684,-0.429092374667,0.802861511684,-0.429092374667,0.18656121264,0.28579240157
9100000000.0,0.189484520694,0.287686936014,0.799698412257,-0.432602977136,0.799698412257,-0.432602977136,0.189484520694,0.287686936014
9200000000.0,0.19242003036,0.289547507455,0.796520265529,-0.436080346218,0.796520265529,-0.436080346218,0.19242003036,0.289547507455
9300000000.0,0.195367285142,0.291374117607,0.793327521214,-0.439524489792,0.793327521214,-0.439524489792,0.195367285142,0.291374117607
9400000000.0,0.198325831542,0.293166775117,0.790120625959,-0.442935422652,0.790120625959,-0.442935422652,0.198325831542,0.293166775117
9500000000.0,0.201295219163,0.294925495448,0.786900023232,-0.446313166394,0.786900023232,-0.446313166394,0.201295219163,0.294925495448
9600000000.0,0.204275000822,0.296650300762,0.783666153219,-0.449657749297,0.783666153219,-0.449657749297,0.204275000822,0.296650300762
9700000000.0,0.207264732645,0.298341219802,0.780419452719,-0.452969206202,0.780419452719,-0.452969206202,0.207264732645,0.298341219802
9800000000.0,0.210263974166,0.299998287769,0.777160355052,-0.456247578398,0.777160355052,-0.456247578398,0.210263974166,0.299998287769
9900000000.0,0.21327228842,0.301621546203,0.773889289964,-0.459492913495,0.773889289964,-0.459492913495,0.21327228842,0.301621546203
10000000000.0,0.216289242035,0.303211042863,0.770606683533,-0.462705265306,0.770606683533,-0.462705265306,0.216289242035,0.303211042863
