freq (GHz),S11_real,S11_imag,S21_real,S21_imag,S12_real,S12_imag,S22_real,S22_imag
100000000.0,0.0192824852805,0.00129047961856,0.98071609922,-0.00166288788973,0.98071609922,-0.00166288788973,0.0192824852805,0.00129047961856
200000000.0,0.0194134046016,0.00258019630033,0.980584624781,-0.00332501754428,0.980584624781,-0.00332501754428,0.0194134046016,0.00258019630033
300000000.0,0.0195147861555,0.00386944107197,0.980482548468,-0.00498668260339,0.980482548468,-0.00498668260339,0.0195147861555,0.00386944107197
400000000.0,0.019603158103,0.00515830493418,0.9803933421,-0.00664797611242,0.9803933421,-0.00664797611242,0.019603158103,0.00515830493418
500000000.0,0.0196849030159,0.00644683217743,0.980310623082,-0.00830894411928,0.980310623082,-0.00830894411928,0.0196849030159,0.00644683217743
600000000.0,0.0197632843301,0.00773504634707,0.980231127955,-0.00996961173829,0.980231127955,-0.00996961173829,0.0197632843301,0.00773504634707
700000000.0,0.0198402346323,0.00902295958684,0.980152924109,-0.011629992544,0.980152924109,-0.011629992544,0.0198402346323,0.00902295958685
800000000.0,0.0199170090299,0.0103105769798,0.980074756411,-0.0132900929423,0.980074756411,-0.0132900929423,0.0199170090299,0.0103105769798
900000000.0,0.0199944763666,0.011597898883,0.979995755989,-0.0149499145248,0.979995755989,-0.0149499145248,0.0199944763666,0.011597898883
1000000000.0,0.0200732669831,0.0128849223119,0.979915292475,-0.0166094554677,0.979915292475,-0.0166094554677,0.0200732669831,0.0128849223119
1100000000.0,0.0201538549382,0.0141716418207,0.979832891781,-0.0182687114215,0.979832891781,-0.0182687114215,0.0201538549382,0.0141716418207
1200000000.0,0.0202366070506,0.0154580500917,0.979748187057,-0.0199276761095,0.979748187057,-0.0199276761095,0.0202366070506,0.0154580500917
1300000000.0,0.020321813784,0.0167441383487,0.979660887808,-0.021586341746,0.979660887808,-0.021586341746,0.020321813784,0.0167441383487
1400000000.0,0.0204097095679,0.018029896654,0.979570759572,-0.0232446993396,0.979570759572,-0.0232446993396,0.0204097095679,0.018029896654
1500000000.0,0.0205004866579,0.0193153141307,0.979477610059,-0.0249027389189,0.979477610059,-0.0249027389189,0.0205004866579,0.0193153141307
1600000000.0,0.0205943048804,0.020600379131,0.979381279407,-0.026560449704,0.979381279407,-0.026560449704,0.0205943048804,0.020600379131
1700000000.0,0.0206912986608,0.0218850793668,0.979281633156,-0.0282178202408,0.979281633156,-0.0282178202408,0.0206912986608,0.0218850793668
1800000000.0,0.0207915822085,0.0231694020133,0.979178557059,-0.029874838506,0.979178557059,-0.029874838506,0.0207915822085,0.0231694020133
1900000000.0,0.020895253414,0.0244533337911,0.979071953187,-0.0315314919926,0.979071953187,-0.0315314919926,0.020895253414,0.0244533337911
2000000000.0,0.0210023968305,0.0257368610343,0.978961736948,-0.0331877677787,0.978961736948,-0.0331877677787,0.0210023968305,0.0257368610343
2100000000.0,0.0211130859885,0.0270199697447,0.978847834772,-0.0348436525842,0.978847834772,-0.0348436525842,0.0211130859885,0.0270199697447
2200000000.0,0.0212273852166,0.0283026456385,0.97873018229,-0.0364991328183,0.97873018229,-0.0364991328183,0.0212273852166,0.0283026456385
2300000000.0,0.0213453510928,0.029584874184,0.978608722882,-0.0381541946191,0.978608722882,-0.0381541946191,0.0213453510928,0.029584874184
2400000000.0,0.0214670336117,0.0308666406347,0.978483406512,-0.0398088238872,0.978483406512,-0.0398088238872,0.0214670336117,0.0308666406347
2500000000.0,0.0215924771349,0.0321479300564,0.978354188774,-0.0414630063147,0.978354188774,-0.0414630063147,0.0215924771349,0.0321479300564
2600000000.0,0.0217217211701,0.0334287273515,0.978221030118,-0.0431167274097,0.978221030118,-0.0431167274097,0.0217217211701,0.0334287273515
2700000000.0,0.0218548010157,0.0347090172791,0.9780838952,-0.0447699725174,0.9780838952,-0.0447699725174,0.0218548010157,0.0347090172791
2800000000.0,0.0219917482989,0.0359887844729,0.977942752348,-0.0464227268393,0.977942752348,-0.0464227268393,0.0219917482989,0.0359887844729
2900000000.0,0.0221325914262,0.0372680134569,0.977797573109,-0.048074975449,0.977797573109,-0.048074975449,0.0221325914262,0.0372680134569
3000000000.0,0.0222773559656,0.0385466886589,0.977648331869,-0.0497267033068,0.977648331869,-0.0497267033068,0.0222773559656,0.0385466886589
3100000000.0,0.0224260649702,0.0398247944227,0.977495005528,-0.0513778952724,0.977495005528,-0.0513778952724,0.0224260649702,0.0398247944227
3200000000.0,0.0225787392553,0.041102315019,0.977337573223,-0.0530285361161,0.977337573223,-0.0530285361161,0.0225787392553,0.041102315019
3300000000.0,0.022735397637,0.0423792346544,0.977176016088,-0.054678610529,0.977176016088,-0.054678610529,0.022735397637,0.0423792346544
3400000000.0,0.0228960571376,0.0436555374805,0.977010317053,-0.0563281031316,0.977010317053,-0.0563281031316,0.0228960571376,0.0436555374805
3500000000.0,0.0230607331639,0.0449312076011,0.976840460661,-0.0579769984826,0.976840460661,-0.0579769984826,0.0230607331639,0.0449312076011
3600000000.0,0.0232294396627,0.0462062290795,0.976666432916,-0.0596252810857,0.976666432916,-0.0596252810857,0.0232294396627,0.0462062290795
3700000000.0,0.0234021892572,0.0474805859443,0.976488221143,-0.0612729353965,0.976488221143,-0.0612729353965,0.0234021892572,0.0474805859443
3800000000.0,0.0235789933658,0.0487542621955,0.976305813873,-0.0629199458284,0.976305813873,-0.0629199458284,0.0235789933658,0.0487542621955
3900000000.0,0.0237598623078,0.0500272418092,0.976119200735,-0.064566296758,0.976119200735,-0.064566296758,0.0237598623078,0.0500272418092
4000000000.0,0.0239448053965,0.0512995087426,0.975928372365,-0.0662119725306,0.975928372365,-0.0662119725306,0.0239448053965,0.0512995087426
4100000000.0,0.0241338310215,0.0525710469382,0.975733320319,-0.0678569574642,0.975733320319,-0.0678569574642,0.0241338310215,0.0525710469382
4200000000.0,0.0243269467225,0.0538418403276,0.975534037005,-0.0695012358541,0.975534037005,-0.0695012358541,0.0243269467225,0.0538418403276
4300000000.0,0.0245241592549,0.0551118728354,0.975330515615,-0.0711447919768,0.975330515615,-0.0711447919768,0.0245241592549,0.0551118728354
4400000000.0,0.0247254746484,0.0563811283823,0.975122750065,-0.0727876100935,0.975122750065,-0.0727876100935,0.0247254746484,0.0563811283823
4500000000.0,0.0249308982599,0.057649590888,0.974910734943,-0.0744296744536,0.974910734943,-0.0744296744536,0.0249308982599,0.057649590888
4600000000.0,0.0251404348209,0.0589172442748,0.974694465465,-0.0760709692973,0.974694465465,-0.0760709692973,0.0251404348209,0.0589172442748
4700000000.0,0.0253540884801,0.0601840724692,0.974473937427,-0.0777114788594,0.974473937427,-0.0777114788594,0.0253540884801,0.0601840724692
4800000000.0,0.0255718628427,0.0614500594052,0.974249147167,-0.079351187371,0.974249147167,-0.079351187371,0.0255718628427,0.0614500594052
4900000000.0,0.0257937610047,0.0627151890264,0.974020091536,-0.0809900790628,0.974020091536,-0.0809900790628,0.0257937610047,0.0627151890264
5000000000.0,0.0260197855854,0.0639794452877,0.973786767857,-0.082628138167,0.973786767857,-0.082628138167,0.0260197855854,0.0639794452877
5100000000.0,0.0262499387558,0.0652428121581,0.973549173904,-0.0842653489196,0.973549173904,-0.0842653489196,0.0262499387558,0.0652428121581
5200000000.0,0.0264842222658,0.0665052736216,0.97330730787,-0.0859016955625,0.97330730787,-0.0859016955625,0.0264842222658,0.0665052736216
5300000000.0,0.0267226374675,0.06776681368,0.973061168347,-0.0875371623456,0.973061168347,-0.0875371623456,0.0267226374675,0.06776681368
5400000000.0,0.026965185338,0.0690274163537,0.972810754301,-0.0891717335283,0.972810754301,-0.0891717335283,0.026965185338,0.0690274163537
5500000000.0,0.0272118664993,0.0702870656838,0.972556065053,-0.0908053933816,0.972556065053,-0.0908053933816,0.0272118664993,0.0702870656838
5600000000.0,0.027462681237,0.0715457457333,0.97229710026,-0.0924381261893,0.97229710026,-0.0924381261893,0.027462681237,0.0715457457333
5700000000.0,0.0277176295175,0.0728034405889,0.972033859898,-0.0940699162502,0.972033859898,-0.0940699162502,0.0277176295175,0.0728034405889
5800000000.0,0.0279767110039,0.0740601343615,0.971766344246,-0.0957007478788,0.971766344246,-0.0957007478788,0.0279767110039,0.0740601343615
5900000000.0,0.0282399250702,0.0753158111884,0.971494553872,-0.0973306054074,0.971494553872,-0.0973306054074,0.0282399250702,0.0753158111884
6000000000.0,0.0285072708151,0.0765704552339,0.97121848962,-0.0989594731869,0.97121848962,-0.0989594731869,0.0285072708151,0.0765704552339
6100000000.0,0.0287787470746,0.0778240506906,0.970938152595,-0.100587335588,0.970938152595,-0.100587335588,0.0287787470746,0.0778240506906
6200000000.0,0.0290543524331,0.0790765817806,0.970653544155,-0.102214177004,0.970653544155,-0.102214177004,0.0290543524331,0.0790765817806
6300000000.0,0.0293340852348,0.0803280327562,0.970364665897,-0.10383998185,0.970364665897,-0.10383998185,0.0293340852348,0.0803280327562
6400000000.0,0.0296179435929,0.0815783879013,0.970071519649,-0.105464734562,0.970071519649,-0.105464734562,0.0296179435929,0.0815783879013
6500000000.0,0.0299059253996,0.0828276315319,0.969774107461,-0.107088419606,0.969774107461,-0.107088419606,0.0299059253996,0.0828276315319
6600000000.0,0.0301980283346,0.0840757479975,0.969472431593,-0.108711021468,0.969472431593,-0.108711021468,0.0301980283346,0.0840757479975
6700000000.0,0.0304942498729,0.0853227216814,0.969166494512,-0.110332524666,0.969166494512,-0.110332524666,0.0304942498729,0.0853227216814
6800000000.0,0.0307945872928,0.0865685370021,0.968856298881,-0.11195291374,0.968856298881,-0.11195291374,0.0307945872928,0.0865685370021
6900000000.0,0.0310990376826,0.0878131784135,0.968541847551,-0.113572173263,0.968541847551,-0.113572173263,0.0310990376826,0.0878131784135
7000000000.0,0.0314075979477,0.0890566304062,0.96822314356,-0.115190287834,0.96822314356,-0.115190287834,0.0314075979477,0.0890566304062
7100000000.0,0.0317202648162,0.0902988775079,0.967900190119,-0.116807242085,0.967900190119,-0.116807242085,0.0317202648162,0.0902988775079
7200000000.0,0.0320370348454,0.0915399042843,0.967572990612,-0.118423020676,0.967572990612,-0.118423020676,0.0320370348454,0.0915399042843
7300000000.0,0.0323579044269,0.0927796953395,0.967241548588,-0.120037608302,0.967241548588,-0.120037608302,0.0323579044269,0.0927796953395
7400000000.0,0.0326828697921,0.094018235317,0.966905867756,-0.121650989687,0.966905867756,-0.121650989687,0.0326828697921,0.094018235317
7500000000.0,0.0330119270165,0.0952555089002,0.966565951983,-0.123263149591,0.966565951983,-0.123263149591,0.0330119270165,0.0952555089002
7600000000.0,0.0333450720252,0.0964915008128,0.966221805282,-0.124874072805,0.966221805282,-0.124874072805,0.0333450720252,0.0964915008128
7700000000.0,0.0336823005963,0.0977261958199,0.965873431818,-0.126483744158,0.965873431818,-0.126483744158,0.0336823005963,0.0977261958199
7800000000.0,0.0340236083657,0.0989595787279,0.965520835895,-0.128092148511,0.965520835895,-0.128092148511,0.0340236083657,0.0989595787279
7900000000.0,0.0343689908308,0.100191634386,0.965164021957,-0.129699270762,0.965164021957,-0.129699270762,0.0343689908308,0.100191634386
8000000000.0,0.0347184433541,0.101422347685,0.964802994581,-0.131305095847,0.964802994581,-0.131305095847,0.0347184433541,0.101422347685
8100000000.0,0.0350719611667,0.10265170356,0.964437758478,-0.132909608736,0.964437758478,-0.132909608736,0.0350719611667,0.10265170356
8200000000.0,0.0354295393718,0.103879686991,0.964068318486,-0.134512794439,0.964068318486,-0.134512794439,0.0354295393718,0.103879686991
8300000000.0,0.0357911729477,0.105106282999,0.963694679567,-0.136114638003,0.963694679567,-0.136114638003,0.0357911729477,0.105106282999
8400000000.0,0.0361568567507,0.106331476653,0.963316846806,-0.137715124515,0.963316846806,-0.137715124515,0.0361568567507,0.106331476653
8500000000.0,0.0365265855184,0.107555253065,0.962934825407,-0.139314239099,0.962934825407,-0.139314239099,0.0365265855184,0.107555253065
8600000000.0,0.036900353872,0.108777597395,0.96254862069,-0.140911966921,0.96254862069,-0.140911966921,0.036900353872,0.108777597395
8700000000.0,0.0372781563189,0.109998494846,0.962158238089,-0.142508293186,0.962158238089,-0.142508293186,0.0372781563189,0.109998494846
8800000000.0,0.0376599872557,0.111217930671,0.96176368315,-0.14410320314,0.96176368315,-0.14410320314,0.0376599872557,0.111217930671
8900000000.0,0.0380458409698,0.112435890168,0.961364961525,-0.145696682072,0.961364961525,-0.145696682072,0.0380458409698,0.112435890168
9000000000.0,0.0384357116424,0.113652358682,0.960962078977,-0.147288715309,0.960962078977,-0.147288715309,0.0384357116424,0.113652358682
9100000000.0,0.0388295933502,0.114867321608,0.96055504137,-0.148879288223,0.96055504137,-0.148879288223,0.0388295933502,0.114867321608
9200000000.0,0.0392274800676,0.116080764387,0.960143854672,-0.150468386229,0.960143854672,-0.150468386229,0.0392274800676,0.116080764387
9300000000.0,0.0396293656689,0.11729267251,0.959728524951,-0.152055994783,0.959728524951,-0.152055994783,0.0396293656689,0.11729267251
9400000000.0,0.04003524393,0.118503031515,0.959309058374,-0.153642099386,0.959309058374,-0.153642099386,0.04003524393,0.118503031515
9500000000.0,0.0404451085304,0.119711826993,0.958885461204,-0.155226685582,0.958885461204,-0.155226685582,0.0404451085304,0.119711826993
9600000000.0,0.0408589530547,0.12091904458,0.958457739799,-0.15680973896,0.958457739799,-0.15680973896,0.0408589530547,0.12091904458
9700000000.0,0.0412767709946,0.122124669967,0.958025900611,-0.158391245154,0.958025900611,-0.158391245154,0.0412767709946,0.122124669967
9800000000.0,0.0416985557507,0.123328688892,0.957589950182,-0.159971189842,0.957589950182,-0.159971189842,0.0416985557507,0.123328688892
9900000000.0,0.0421243006334,0.124531087143,0.957149895144,-0.161549558749,0.957149895144,-0.161549558749,0.0421243006334,0.124531087143
10000000000.0,0.0425539988653,0.125731850564,0.95670574222,-0.163126337643,0.95670574222,-0.163126337643,0.0425539988653,0.125731850564
