freq (GHz),S11_real,S11_imag,S21_real,S21_imag,S12_real,S12_imag,S22_real,S22_imag
100000000.0,0.00121474561061,0.000425613314863,0.998780494168,-0.00238488531526,0.998780494168,-0.00238488531526,0.00121474561061,0.000425613314863
200000000.0,0.00122500850647,0.000851168523677,0.998762630531,-0.00476973881038,0.998762630531,-0.00476973881038,0.00122500850647,0.000851168523677
300000000.0,0.00123517120641,0.00127667082696,0.998741026202,-0.00715457986582,0.998741026202,-0.00715457986582,0.00123517120641,0.00127667082696
400000000.0,0.00124628600075,0.00170211439708,0.998714628416,-0.0095394121093,0.998714628416,-0.0095394121093,0.00124628600075,0.00170211439708
500000000.0,0.00125875762769,0.00212749111852,0.99868303187,-0.0119242344741,0.99868303187,-0.0119242344741,0.00125875762769,0.00212749111852
600000000.0,0.00127279216348,0.00255279198525,0.998646029844,-0.0143090434142,0.998646029844,-0.0143090434142,0.00127279216348,0.00255279198525
700000000.0,0.00128851107986,0.0029780075782,0.998603500157,-0.0166938338009,0.998603500157,-0.0166938338009,0.00128851107986,0.0029780075782
800000000.0,0.00130599285223,0.00340312827549,0.99855536356,-0.0190785993845,0.99855536356,-0.0190785993845,0.00130599285223,0.00340312827549
900000000.0,0.00132529147731,0.00382814435856,0.998501565227,-0.0214633330673,0.998501565227,-0.0214633330673,0.00132529147731,0.00382814435856
1000000000.0,0.00134644585532,0.00425304607093,0.998442065377,-0.02384802708,0.998442065377,-0.02384802708,0.00134644585532,0.00425304607093
1100000000.0,0.00136948500314,0.00467782365278,0.998376834065,-0.0262326731034,0.998376834065,-0.0262326731034,0.00136948500315,0.00467782365278
1200000000.0,0.00139443115941,0.00510246736205,0.99830584808,-0.0286172623569,0.99830584808,-0.0286172623569,0.00139443115941,0.00510246736205
1300000000.0,0.0014213017373,0.00552696748774,0.998229088997,-0.0310017856644,0.998229088997,-0.0310017856644,0.00142130173731,0.00552696748774
1400000000.0,0.00145011060768,0.00595131435831,0.998146541895,-0.0333862335059,0.998146541895,-0.0333862335059,0.00145011060768,0.00595131435831
1500000000.0,0.00148086897308,0.00637549834716,0.998058194485,-0.0357705960579,0.998058194485,-0.0357705960579,0.00148086897308,0.00637549834716
1600000000.0,0.00151358598145,0.00679950987592,0.997964036501,-0.0381548632267,0.997964036501,-0.0381548632267,0.00151358598145,0.00679950987592
1700000000.0,0.00154826916823,0.00722333941652,0.99786405926,-0.0405390246756,0.99786405926,-0.0405390246756,0.00154826916823,0.00722333941652
1800000000.0,0.00158492478213,0.0076469774923,0.997758255335,-0.0429230698473,0.997758255335,-0.0429230698473,0.00158492478213,0.0076469774923
1900000000.0,0.0016235580297,0.00807041467847,0.997646618315,-0.0453069879837,0.997646618315,-0.0453069879837,0.0016235580297,0.00807041467847
2000000000.0,0.00166417326227,0.00849364160216,0.997529142619,-0.047690768142,0.997529142619,-0.047690768142,0.00166417326227,0.00849364160216
2100000000.0,0.00170677412088,0.00891664894211,0.997405823356,-0.0500743992092,0.997405823356,-0.0500743992092,0.00170677412088,0.00891664894211
2200000000.0,0.0017513636503,0.00933942742824,0.997276656205,-0.0524578699146,0.997276656205,-0.0524578699146,0.0017513636503,0.00933942742824
2300000000.0,0.00179794438968,0.00976196784093,0.997141637333,-0.0548411688407,0.997141637333,-0.0548411688407,0.00179794438968,0.00976196784093
2400000000.0,0.00184651844559,0.0101842610103,0.997000763321,-0.0572242844331,0.997000763321,-0.0572242844331,0.00184651844559,0.0101842610103
2500000000.0,0.00189708755128,0.0106062978155,0.996854031103,-0.0596072050089,0.996854031103,-0.0596072050089,0.00189708755128,0.0106062978155
2600000000.0,0.00194965311536,0.0110280691837,0.996701437923,-0.0619899187649,0.996701437923,-0.0619899187649,0.00194965311536,0.0110280691837
2700000000.0,0.00200421626202,0.0114495660892,0.996542981296,-0.0643724137842,0.996542981296,-0.0643724137842,0.00200421626202,0.0114495660892
2800000000.0,0.00206077786458,0.0118707795526,0.996378658969,-0.0667546780429,0.996378658969,-0.0667546780429,0.00206077786458,0.0118707795526
2900000000.0,0.00211933857363,0.0122917006401,0.996208468903,-0.0691366994155,0.996208468903,-0.0691366994155,0.00211933857363,0.0122917006401
3000000000.0,0.00217989884081,0.012712320462,0.996032409245,-0.0715184656808,0.996032409245,-0.0715184656808,0.00217989884081,0.012712320462
3100000000.0,0.00224245893906,0.0131326301725,0.995850478306,-0.0738999645262,0.995850478306,-0.0738999645262,0.00224245893906,0.0131326301725
3200000000.0,0.00230701897993,0.0135526209685,0.995662674554,-0.0762811835523,0.995662674554,-0.0762811835523,0.00230701897993,0.0135526209685
3300000000.0,0.0023735789284,0.0139722840886,0.995468996588,-0.0786621102774,0.995468996588,-0.0786621102774,0.0023735789284,0.0139722840886
3400000000.0,0.0024421386158,0.0143916108126,0.995269443138,-0.0810427321405,0.995269443138,-0.0810427321405,0.0024421386158,0.0143916108126
3500000000.0,0.00251269775091,0.0148105924605,0.995064013045,-0.0834230365059,0.995064013045,-0.0834230365059,0.00251269775091,0.0148105924605
3600000000.0,0.00258525592975,0.0152292203917,0.994852705257,-0.0858030106656,0.994852705257,-0.0858030106656,0.00258525592975,0.0152292203917
3700000000.0,0.00265981264407,0.015647486004,0.99463551882,-0.0881826418429,0.99463551882,-0.0881826418429,0.00265981264407,0.015647486004
3800000000.0,0.00273636728886,0.0160653807335,0.994412452872,-0.090561917195,0.994412452872,-0.090561917195,0.00273636728886,0.0160653807335
3900000000.0,0.00281491916899,0.0164828960531,0.994183506636,-0.092940823816,0.994183506636,-0.092940823816,0.00281491916899,0.0164828960531
4000000000.0,0.00289546750502,0.0169000234722,0.993948679415,-0.095319348739,0.993948679415,-0.095319348739,0.00289546750502,0.0169000234722
4100000000.0,0.0029780114385,0.0173167545361,0.993707970586,-0.0976974789391,0.993707970586,-0.0976974789391,0.0029780114385,0.0173167545361
4200000000.0,0.00306255003654,0.0177330808248,0.993461379602,-0.100075201335,0.993461379602,-0.100075201335,0.00306255003654,0.0177330808248
4300000000.0,0.00314908229602,0.0181489939532,0.993208905979,-0.102452502792,0.993208905979,-0.102452502792,0.00314908229602,0.0181489939532
4400000000.0,0.00323760714731,0.0185644855694,0.992950549302,-0.104829370122,0.992950549302,-0.104829370122,0.00323760714731,0.0185644855694
4500000000.0,0.00332812345764,0.0189795473551,0.992686309215,-0.107205790088,0.992686309215,-0.107205790088,0.00332812345764,0.0189795473551
4600000000.0,0.00342063003414,0.0193941710244,0.992416185424,-0.109581749405,0.992416185424,-0.109581749405,0.00342063003414,0.0193941710244
4700000000.0,0.00351512562654,0.0198083483231,0.99214017769,-0.111957234741,0.99214017769,-0.111957234741,0.00351512562654,0.0198083483231
4800000000.0,0.00361160892974,0.0202220710289,0.991858285831,-0.11433223272,0.991858285831,-0.11433223272,0.00361160892974,0.0202220710289
4900000000.0,0.00371007858601,0.0206353309499,0.991570509718,-0.11670672992,0.991570509718,-0.11670672992,0.00371007858601,0.0206353309499
5000000000.0,0.00381053318708,0.0210481199249,0.991276849274,-0.119080712879,0.991276849274,-0.119080712879,0.00381053318708,0.0210481199249
5100000000.0,0.00391297127605,0.0214604298221,0.990977304474,-0.121454168096,0.990977304474,-0.121454168096,0.00391297127605,0.0214604298221
5200000000.0,0.00401739134906,0.0218722525393,0.990671875339,-0.123827082028,0.990671875339,-0.123827082028,0.00401739134906,0.0218722525393
5300000000.0,0.00412379185694,0.022283580003,0.990360561942,-0.126199441096,0.990360561942,-0.126199441096,0.00412379185694,0.022283580003
5400000000.0,0.0042321712066,0.0226944041681,0.990043364399,-0.128571231685,0.990043364399,-0.128571231685,0.0042321712066,0.0226944041681
5500000000.0,0.00434252776245,0.0231047170173,0.989720282876,-0.130942440141,0.989720282876,-0.130942440141,0.00434252776245,0.0231047170173
5600000000.0,0.00445485984756,0.0235145105608,0.989391317582,-0.133313052781,0.989391317582,-0.133313052781,0.00445485984756,0.0235145105608
5700000000.0,0.00456916574487,0.0239237768358,0.98905646877,-0.135683055884,0.98905646877,-0.135683055884,0.00456916574487,0.0239237768358
5800000000.0,0.0046854436982,0.0243325079061,0.98871573674,-0.1380524357,0.98871573674,-0.1380524357,0.0046854436982,0.0243325079061
5900000000.0,0.00480369191328,0.0247406958616,0.988369121831,-0.140421178447,0.988369121831,-0.140421178447,0.00480369191328,0.0247406958616
6000000000.0,0.00492390855862,0.025148332818,0.988016624428,-0.142789270313,0.988016624428,-0.142789270313,0.00492390855862,0.025148332818
6100000000.0,0.00504609176639,0.0255554109164,0.987658244957,-0.145156697456,0.987658244957,-0.145156697456,0.00504609176639,0.0255554109164
6200000000.0,0.00517023963322,0.0259619223228,0.987293983884,-0.147523446007,0.987293983884,-0.147523446007,0.00517023963322,0.0259619223228
6300000000.0,0.0052963502209,0.0263678592282,0.986923841719,-0.149889502068,0.986923841719,-0.149889502068,0.0052963502209,0.0263678592282
6400000000.0,0.0054244215571,0.0267732138473,0.986547819011,-0.152254851715,0.986547819011,-0.152254851715,0.0054244215571,0.0267732138473
6500000000.0,0.00555445163604,0.0271779784193,0.986165916349,-0.154619480999,0.986165916349,-0.154619480999,0.00555445163604,0.0271779784193
6600000000.0,0.00568643841904,0.0275821452067,0.985778134365,-0.156983375946,0.985778134365,-0.156983375946,0.00568643841904,0.0275821452067
6700000000.0,0.00582037983514,0.0279857064954,0.985384473728,-0.159346522556,0.985384473728,-0.159346522556,0.00582037983514,0.0279857064954
6800000000.0,0.00595627378161,0.0283886545941,0.984984935148,-0.161708906808,0.984984935148,-0.161708906808,0.00595627378161,0.0283886545941
6900000000.0,0.00609411812445,0.0287909818342,0.984579519374,-0.164070514655,0.984579519374,-0.164070514655,0.00609411812445,0.0287909818342
7000000000.0,0.0062339106989,0.0291926805697,0.984168227194,-0.166431332031,0.984168227194,-0.166431332031,0.0062339106989,0.0291926805697
7100000000.0,0.00637564930984,0.0295937431762,0.983751059434,-0.168791344847,0.983751059434,-0.168791344847,0.00637564930984,0.0295937431762
7200000000.0,0.00651933173223,0.0299941620514,0.983328016962,-0.171150538992,0.983328016962,-0.171150538992,0.00651933173223,0.0299941620514
7300000000.0,0.00666495571151,0.0303939296144,0.982899100682,-0.173508900338,0.982899100682,-0.173508900338,0.00666495571151,0.0303939296144
7400000000.0,0.006812518964,0.0307930383053,0.982464311536,-0.175866414734,0.982464311536,-0.175866414734,0.006812518964,0.0307930383053
7500000000.0,0.00696201917721,0.0311914805856,0.982023650506,-0.178223068012,0.982023650506,-0.178223068012,0.00696201917721,0.0311914805856
7600000000.0,0.00711345401021,0.0315892489369,0.981577118612,-0.180578845984,0.981577118612,-0.180578845984,0.00711345401021,0.0315892489369
7700000000.0,0.00726682109394,0.0319863358618,0.981124716911,-0.182933734447,0.981124716911,-0.182933734447,0.00726682109394,0.0319863358618
7800000000.0,0.00742211803153,0.0323827338827,0.9806664465,-0.185287719176,0.9806664465,-0.185287719176,0.00742211803153,0.0323827338827
7900000000.0,0.00757934239855,0.0327784355421,0.980202308511,-0.187640785934,0.980202308511,-0.187640785934,0.00757934239855,0.0327784355421
8000000000.0,0.00773849174332,0.0331734334021,0.979732304118,-0.189992920464,0.979732304118,-0.189992920464,0.00773849174332,0.0331734334021
8100000000.0,0.00789956358718,0.0335677200445,0.979256434528,-0.192344108495,0.979256434528,-0.192344108495,0.00789956358718,0.0335677200445
8200000000.0,0.00806255542468,0.0339612880703,0.978774700989,-0.19469433574,0.978774700989,-0.19469433574,0.00806255542468,0.0339612880703
8300000000.0,0.00822746472388,0.0343541300993,0.978287104787,-0.197043587897,0.978287104787,-0.197043587897,0.00822746472388,0.0343541300993
8400000000.0,0.00839428892656,0.0347462387705,0.977793647243,-0.199391850649,0.977793647243,-0.199391850649,0.00839428892656,0.0347462387705
8500000000.0,0.0085630254484,0.0351376067414,0.977294329717,-0.201739109667,0.977294329717,-0.201739109667,0.0085630254484,0.0351376067414
8600000000.0,0.00873367167922,0.0355282266878,0.976789153607,-0.204085350606,0.976789153607,-0.204085350606,0.00873367167922,0.0355282266878
8700000000.0,0.00890622498316,0.035918091304,0.976278120349,-0.206430559109,0.976278120349,-0.206430559109,0.00890622498316,0.035918091304
8800000000.0,0.0090806826989,0.0363071933021,0.975761231414,-0.208774720806,0.975761231414,-0.208774720806,0.0090806826989,0.0363071933021
8900000000.0,0.00925704213977,0.0366955254123,0.975238488314,-0.211117821314,0.975238488314,-0.211117821314,0.00925704213977,0.0366955254123
9000000000.0,0.00943530059399,0.0370830803823,0.974709892595,-0.21345984624,0.974709892595,-0.21345984624,0.00943530059399,0.0370830803823
9100000000.0,0.00961545532478,0.0374698509774,0.974175445842,-0.215800781177,0.974175445842,-0.215800781177,0.00961545532478,0.0374698509774
9200000000.0,0.00979750357058,0.0378558299802,0.973635149678,-0.218140611708,0.973635149678,-0.218140611708,0.00979750357058,0.0378558299802
9300000000.0,0.00998144254512,0.0382410101905,0.973089005763,-0.220479323404,0.973089005763,-0.220479323404,0.00998144254512,0.0382410101905
9400000000.0,0.0101672694376,0.0386253844251,0.972537015794,-0.222816901828,0.972537015794,-0.222816901828,0.0101672694376,0.0386253844251
9500000000.0,0.0103549814129,0.0390089455177,0.971979181505,-0.22515333253,0.971979181505,-0.22515333253,0.0103549814129,0.0390089455177
9600000000.0,0.0105445756115,0.0393916863186,0.971415504669,-0.227488601051,0.971415504669,-0.227488601051,0.0105445756115,0.0393916863186
9700000000.0,0.01073604915,0.0397735996946,0.970845987095,-0.229822692923,0.970845987095,-0.229822692923,0.01073604915,0.0397735996946
9800000000.0,0.0109293991206,0.0401546785291,0.97027063063,-0.232155593669,0.97027063063,-0.232155593669,0.0109293991206,0.0401546785291
9900000000.0,0.0111246225919,0.0405349157216,0.969689437159,-0.234487288802,0.969689437159,-0.234487288802,0.0111246225919,0.0405349157216
10000000000.0,0.0113217166087,0.0409143041877,0.969102408602,-0.236817763827,0.969102408602,-0.236817763827,0.0113217166087,0.0409143041877
