freq (GHz),S11_real,S11_imag,S21_real,S21_imag,S12_real,S12_imag,S22_real,S22_imag
100000000.0,0.00896787374703,0.00157847701446,0.991025682053,-0.00406613036267,0.991025682053,-0.00406613036267,0.00896787374703,0.00157847701446
200000000.0,0.00904531313234,0.00315617134181,0.990936591026,-0.0081314742961,0.990936591026,-0.0081314742961,0.00904531313234,0.00315617134181
300000000.0,0.00912000132666,0.00473323786652,0.990844043305,-0.0121961881323,0.990844043305,-0.0121961881323,0.00912000132666,0.00473323786652
400000000.0,0.00919966032789,0.006309655168,0.990740316404,-0.0162602503377,0.990740316404,-0.0162602503377,0.00919966032789,0.006309655168
500000000.0,0.00928726171993,0.00788536102416,0.990622438177,-0.0203235977946,0.990622438177,-0.0203235977946,0.00928726171993,0.00788536102416
600000000.0,0.00938431800141,0.00946027524679,0.990488895483,-0.0243861489086,0.990488895483,-0.0243861489086,0.00938431800141,0.00946027524679
700000000.0,0.00949171937305,0.0110343078723,0.990338797398,-0.0284478119374,0.990338797398,-0.0284478119374,0.00949171937305,0.0110343078723
800000000.0,0.00961003916253,0.0126073629581,0.990171569785,-0.0325084888706,0.990171569785,-0.0325084888706,0.00961003916253,0.0126073629581
900000000.0,0.00973966982272,0.0141793406224,0.9899868193,-0.0365680775225,0.9899868193,-0.0365680775225,0.00973966982272,0.0141793406224
1000000000.0,0.00988089186908,0.0157501382537,0.989784264454,-0.0406264727803,0.989784264454,-0.0406264727803,0.00988089186908,0.0157501382537
1100000000.0,0.0100339122022,0.0173196512812,0.989563697288,-0.0446835674016,0.989563697288,-0.0446835674016,0.0100339122022,0.0173196512812
1200000000.0,0.0101988869435,0.0188877736932,0.989324960542,-0.0487392525544,0.989324960542,-0.0487392525544,0.0101988869435,0.0188877736932
1300000000.0,0.0103759358032,0.0204543984027,0.989067933287,-0.0527934181986,0.989067933287,-0.0527934181986,0.0103759358032,0.0204543984027
1400000000.0,0.0105651515242,0.0220194175123,0.988792521478,-0.0568459533644,0.988792521478,-0.0568459533644,0.0105651515242,0.0220194175123
1500000000.0,0.0107666063181,0.0235827225154,0.988498651523,-0.0608967463639,0.988498651523,-0.0608967463639,0.0107666063181,0.0235827225154
1600000000.0,0.0109803563857,0.0251442044502,0.988186265759,-0.0649456849536,0.988186265759,-0.0649456849536,0.0109803563857,0.0251442044502
1700000000.0,0.0112064451759,0.026703754022,0.987855319199,-0.0689926564649,0.987855319199,-0.0689926564649,0.0112064451759,0.026703754022
1800000000.0,0.0114449057863,0.0282612617023,0.987505777127,-0.0730375479084,0.987505777127,-0.0730375479084,0.0114449057863,0.0282612617023
1900000000.0,0.0116957627685,0.0298166178095,0.987137613294,-0.0770802460604,0.987137613294,-0.0770802460604,0.0116957627685,0.0298166178095
2000000000.0,0.0119590335072,0.0313697125774,0.986750808542,-0.081120637536,0.986750808542,-0.081120637536,0.0119590335072,0.0313697125774
2100000000.0,0.0122347292909,0.0329204362127,0.986345349732,-0.0851586088501,0.986345349732,-0.0851586088501,0.0122347292909,0.0329204362127
2200000000.0,0.0125228561543,0.0344686789452,0.985921228901,-0.0891940464712,0.985921228901,-0.0891940464712,0.0125228561543,0.0344686789452
2300000000.0,0.0128234155496,0.0360143310709,0.985478442592,-0.0932268368676,0.985478442592,-0.0932268368676,0.0128234155496,0.0360143310709
2400000000.0,0.013136404887,0.0375572829908,0.985016991317,-0.097256866549,0.985016991317,-0.097256866549,0.013136404887,0.0375572829908
2500000000.0,0.0134618179747,0.0390974252457,0.984536879111,-0.101284022103,0.984536879111,-0.101284022103,0.0134618179747,0.0390974252457
2600000000.0,0.0137996453805,0.0406346485467,0.984038113178,-0.105308190228,0.984038113178,-0.105308190228,0.0137996453805,0.0406346485467
2700000000.0,0.0141498747312,0.0421688438039,0.983520703584,-0.109329257763,0.983520703584,-0.109329257763,0.0141498747312,0.0421688438039
2800000000.0,0.0145124909633,0.0436999021525,0.982984663014,-0.113347111718,0.982984663014,-0.113347111718,0.0145124909633,0.0436999021525
2900000000.0,0.0148874765335,0.0452277149768,0.982430006559,-0.117361639296,0.982430006559,-0.117361639296,0.0148874765335,0.0452277149768
3000000000.0,0.0152748115978,0.0467521739331,0.981856751534,-0.121372727917,0.981856751534,-0.121372727917,0.0152748115978,0.0467521739331
3100000000.0,0.0156744741642,0.0482731709701,0.981264917333,-0.125380265246,0.981264917333,-0.125380265246,0.0156744741642,0.0482731709701
3200000000.0,0.016086440224,0.0497905983496,0.980654525289,-0.129384139204,0.980654525289,-0.129384139204,0.016086440224,0.0497905983496
3300000000.0,0.016510683865,0.0513043486649,0.980025598569,-0.133384237997,0.980025598569,-0.133384237997,0.016510683865,0.0513043486649
3400000000.0,0.0169471773709,0.052814314859,0.979378162071,-0.137380450131,0.979378162071,-0.137380450131,0.0169471773709,0.052814314859
3500000000.0,0.0173958913075,0.0543203902414,0.978712242338,-0.141372664428,0.978712242338,-0.141372664428,0.0173958913075,0.0543203902414
3600000000.0,0.0178567945987,0.0558224685052,0.978027867482,-0.145360770047,0.978027867482,-0.145360770047,0.0178567945987,0.0558224685052
3700000000.0,0.0183298545944,0.0573204437425,0.97732506712,-0.149344656498,0.97732506712,-0.149344656498,0.0183298545944,0.0573204437425
3800000000.0,0.0188150371302,0.0588142104597,0.97660387231,-0.153324213657,0.97660387231,-0.153324213657,0.0188150371302,0.0588142104597
3900000000.0,0.0193123065808,0.0603036635926,0.975864315499,-0.157299331786,0.975864315499,-0.157299331786,0.0193123065808,0.0603036635926
4000000000.0,0.0198216259089,0.0617886985203,0.975106430476,-0.16126990154,0.975106430476,-0.16126990154,0.0198216259089,0.0617886985203
4100000000.0,0.0203429567086,0.0632692110794,0.974330252329,-0.16523581399,0.974330252329,-0.16523581399,0.0203429567086,0.0632692110794
4200000000.0,0.0208762592447,0.0647450975773,0.973535817403,-0.169196960629,0.973535817403,-0.169196960629,0.0208762592447,0.0647450975773
4300000000.0,0.0214214924896,0.0662162548056,0.972723163266,-0.173153233389,0.972723163266,-0.173153233389,0.0214214924896,0.0662162548056
4400000000.0,0.0219786141558,0.0676825800527,0.971892328675,-0.177104524658,0.971892328675,-0.177104524658,0.0219786141558,0.0676825800527
4500000000.0,0.0225475807273,0.0691439711164,0.971043353547,-0.181050727282,0.971043353547,-0.181050727282,0.0225475807273,0.0691439711164
4600000000.0,0.0231283474871,0.0706003263163,0.970176278928,-0.18499173459,0.970176278928,-0.18499173459,0.0231283474871,0.0706003263163
4700000000.0,0.0237208685444,0.0720515445054,0.969291146971,-0.188927440396,0.969291146971,-0.188927440396,0.0237208685444,0.0720515445054
4800000000.0,0.0243250968587,0.073497525082,0.968388000908,-0.192857739018,0.968388000908,-0.192857739018,0.0243250968587,0.073497525082
4900000000.0,0.0249409842635,0.0749381680011,0.967466885028,-0.196782525282,0.967466885028,-0.196782525282,0.0249409842635,0.0749381680011
5000000000.0,0.0255684814873,0.0763733737859,0.966527844656,-0.200701694543,0.966527844656,-0.200701694543,0.0255684814873,0.0763733737859
5100000000.0,0.0262075381754,0.077803043538,0.965570926132,-0.204615142686,0.965570926132,-0.204615142686,0.0262075381754,0.077803043538
5200000000.0,0.0268581029082,0.079227078949,0.964596176791,-0.208522766144,0.964596176791,-0.208522766144,0.0268581029082,0.079227078949
5300000000.0,0.0275201232212,0.0806453823106,0.963603644947,-0.212424461905,0.963603644947,-0.212424461905,0.0275201232212,0.0806453823106
5400000000.0,0.028193545622,0.0820578565251,0.962593379871,-0.216320127523,0.962593379871,-0.216320127523,0.028193545622,0.0820578565251
5500000000.0,0.0288783156077,0.0834644051153,0.961565431778,-0.220209661128,0.961565431778,-0.220209661128,0.0288783156077,0.0834644051153
5600000000.0,0.0295743776818,0.0848649322347,0.960519851809,-0.224092961437,0.960519851809,-0.224092961437,0.0295743776818,0.0848649322347
5700000000.0,0.03028167537,0.0862593426772,0.959456692013,-0.227969927762,0.959456692013,-0.227969927762,0.03028167537,0.0862593426772
5800000000.0,0.0310001512353,0.0876475418864,0.958376005337,-0.23184046002,0.958376005337,-0.23184046002,0.0310001512353,0.0876475418864
5900000000.0,0.031729746894,0.0890294359654,0.957277845604,-0.235704458744,0.957277845604,-0.235704458744,0.031729746894,0.0890294359654
6000000000.0,0.0324704030293,0.0904049316856,0.956162267507,-0.239561825088,0.956162267507,-0.239561825088,0.0324704030293,0.0904049316856
6100000000.0,0.0332220594065,0.0917739364959,0.955029326586,-0.24341246084,0.955029326586,-0.24341246084,0.0332220594065,0.0917739364959
6200000000.0,0.0339846548865,0.0931363585314,0.95387907922,-0.24725626843,0.95387907922,-0.24725626843,0.0339846548865,0.0931363585314
6300000000.0,0.0347581274397,0.0944921066222,0.952711582611,-0.251093150934,0.952711582611,-0.251093150934,0.0347581274397,0.0944921066222
6400000000.0,0.0355424141597,0.0958410903019,0.951526894773,-0.254923012089,0.951526894773,-0.254923012089,0.0355424141597,0.0958410903019
6500000000.0,0.036337451276,0.0971832198156,0.950325074516,-0.258745756297,0.950325074516,-0.258745756297,0.036337451276,0.0971832198156
6600000000.0,0.0371431741678,0.0985184061283,0.949106181433,-0.262561288633,0.949106181433,-0.262561288633,0.0371431741678,0.0985184061283
6700000000.0,0.0379595173765,0.0998465609329,0.947870275891,-0.266369514855,0.947870275891,-0.266369514855,0.0379595173765,0.0998465609329
6800000000.0,0.0387864146183,0.101167596658,0.946617419014,-0.270170341408,0.946617419014,-0.270170341408,0.0387864146183,0.101167596658
6900000000.0,0.0396237987973,0.102481426474,0.945347672673,-0.273963675435,0.945347672673,-0.273963675435,0.0396237987973,0.102481426474
7000000000.0,0.0404716020177,0.103787964305,0.944061099473,-0.277749424783,0.944061099473,-0.277749424783,0.0404716020177,0.103787964305
7100000000.0,0.0413297555959,0.10508712483,0.94275776274,-0.281527498008,0.94275776274,-0.281527498008,0.0413297555959,0.10508712483
7200000000.0,0.0421981900734,0.106378823494,0.941437726512,-0.285297804386,0.941437726512,-0.285297804386,0.0421981900734,0.106378823494
7300000000.0,0.0430768352286,0.107662976514,0.940101055521,-0.289060253915,0.940101055521,-0.289060253915,0.0430768352286,0.107662976514
7400000000.0,0.0439656200891,0.108939500886,0.938747815188,-0.292814757324,0.938747815188,-0.292814757324,0.0439656200891,0.108939500886
7500000000.0,0.0448644729433,0.110208314392,0.937378071604,-0.29656122608,0.937378071604,-0.29656122608,0.0448644729433,0.110208314392
7600000000.0,0.0457733213532,0.111469335604,0.935991891526,-0.300299572394,0.935991891526,-0.300299572394,0.0457733213532,0.111469335604
7700000000.0,0.0466920921655,0.112722483893,0.934589342356,-0.304029709224,0.934589342356,-0.304029709224,0.0466920921655,0.112722483893
7800000000.0,0.0476207115241,0.113967679436,0.93317049214,-0.307751550283,0.93317049214,-0.307751550283,0.0476207115241,0.113967679436
7900000000.0,0.0485591048816,0.115204843216,0.931735409545,-0.311465010048,0.931735409545,-0.311465010048,0.0485591048816,0.115204843216
8000000000.0,0.049507197011,0.116433897036,0.930284163855,-0.315170003758,0.930284163855,-0.315170003758,0.049507197011,0.116433897036
8100000000.0,0.0504649120178,0.117654763518,0.928816824959,-0.318866447426,0.928816824959,-0.318866447426,0.0504649120178,0.117654763518
8200000000.0,0.0514321733516,0.118867366113,0.927333463334,-0.322554257841,0.927333463334,-0.322554257841,0.0514321733516,0.118867366113
8300000000.0,0.0524089038176,0.120071629103,0.925834150039,-0.326233352573,0.925834150039,-0.326233352573,0.0524089038176,0.120071629103
8400000000.0,0.0533950255885,0.121267477608,0.924318956702,-0.329903649979,0.924318956702,-0.329903649979,0.0533950255885,0.121267477608
8500000000.0,0.0543904602158,0.122454837589,0.922787955507,-0.333565069205,0.922787955507,-0.333565069205,0.0543904602158,0.122454837589
8600000000.0,0.055395128642,0.123633635857,0.921241219182,-0.337217530197,0.921241219182,-0.337217530197,0.055395128642,0.123633635857
8700000000.0,0.0564089512115,0.124803800072,0.919678820992,-0.340860953695,0.919678820992,-0.340860953695,0.0564089512115,0.124803800072
8800000000.0,0.0574318476826,0.125965258753,0.918100834723,-0.344495261246,0.918100834723,-0.344495261246,0.0574318476826,0.125965258753
8900000000.0,0.0584637372389,0.127117941278,0.91650733467,-0.348120375205,0.91650733467,-0.348120375205,0.0584637372389,0.127117941278
9000000000.0,0.0595045385009,0.12826177789,0.914898395632,-0.351736218738,0.914898395632,-0.351736218738,0.0595045385009,0.12826177789
9100000000.0,0.0605541695372,0.129396699702,0.913274092892,-0.355342715826,0.913274092892,-0.355342715826,0.0605541695372,0.129396699702
9200000000.0,0.0616125478766,0.130522638699,0.911634502213,-0.358939791268,0.911634502213,-0.358939791268,0.0616125478766,0.130522638699
9300000000.0,0.0626795905186,0.131639527743,0.909979699822,-0.362527370687,0.909979699822,-0.362527370687,0.0626795905186,0.131639527743
9400000000.0,0.0637552139458,0.132747300574,0.9083097624,-0.366105380529,0.9083097624,-0.366105380529,0.0637552139458,0.132747300574
9500000000.0,0.0648393341348,0.133845891819,0.906624767072,-0.369673748069,0.906624767072,-0.369673748069,0.0648393341348,0.133845891819
9600000000.0,0.0659318665674,0.134935236988,0.904924791395,-0.373232401414,0.904924791395,-0.373232401414,0.0659318665674,0.134935236988
9700000000.0,0.0670327262426,0.136015272483,0.903209913344,-0.376781269503,0.903209913344,-0.376781269503,0.0670327262426,0.136015272483
9800000000.0,0.0681418276872,0.137085935598,0.901480211307,-0.380320282111,0.901480211307,-0.380320282111,0.0681418276872,0.137085935598
9900000000.0,0.0692590849678,0.138147164521,0.899735764066,-0.383849369853,0.899735764066,-0.383849369853,0.0692590849678,0.138147164521
10000000000.0,0.0703844117015,0.13919889834,0.897976650792,-0.387368464183,0.897976650792,-0.387368464183,0.0703844117015,0.13919889834
