freq (GHz),S11_real,S11_imag,S21_real,S21_imag,S12_real,S12_imag,S22_real,S22_imag
100000000.0,0.0111033811843,0.00274042954289,0.988891648386,-0.00476661177486,0.988891648386,-0.00476661177486,0.0111033811843,0.00274042954289
200000000.0,0.0112150431539,0.00547947127751,0.988771894788,-0.00953186555979,0.988771894788,-0.00953186555979,0.0112150431539,0.00547947127751
300000000.0,0.0113336909963,0.00821727915848,0.988641033489,-0.0142959360839,0.988641033489,-0.0142959360839,0.0113336909963,0.00821727915848
400000000.0,0.0114688560763,0.0109537157545,0.988489532366,-0.0190587025949,0.988489532366,-0.0190587025949,0.0114688560763,0.0109537157545
500000000.0,0.011624199835,0.0136885760284,0.988313729086,-0.0238199746553,0.988313729086,-0.0238199746553,0.011624199835,0.0136885760284
600000000.0,0.0118015790214,0.0164216252141,0.988111765867,-0.028579530728,0.988111765867,-0.028579530728,0.0118015790214,0.0164216252141
700000000.0,0.0120020792742,0.0191526124627,0.987882555908,-0.0333371321859,0.987882555908,-0.0333371321859,0.0120020792742,0.0191526124627
800000000.0,0.0122263923827,0.0218812772047,0.987625406123,-0.0380925298919,0.987625406123,-0.0380925298919,0.0122263923827,0.0218812772047
900000000.0,0.0124749842753,0.0246073525953,0.987339849166,-0.0428454677872,0.987339849166,-0.0428454677872,0.0124749842753,0.0246073525953
1000000000.0,0.0127481801741,0.0273305675771,0.98702555827,-0.047595685056,0.98702555827,-0.047595685056,0.0127481801741,0.0273305675771
1100000000.0,0.0130462119354,0.0300506482125,0.986682299915,-0.0523429175327,0.986682299915,-0.0523429175327,0.0130462119354,0.0300506482125
1200000000.0,0.0133692462626,0.0327673185946,0.986309905614,-0.05708689867,0.986309905614,-0.05708689867,0.0133692462626,0.0327673185946
1300000000.0,0.0137174024598,0.0354803015008,0.985908254166,-0.0618273602386,0.985908254166,-0.0618273602386,0.0137174024598,0.0354803015008
1400000000.0,0.0140907641064,0.038189318882,0.985477259979,-0.0665640328516,0.985477259979,-0.0665640328516,0.0140907641064,0.038189318882
1500000000.0,0.0144893870167,0.040894092239,0.985016865115,-0.0712966463723,0.985016865115,-0.0712966463723,0.0144893870167,0.040894092239
1600000000.0,0.0149133048356,0.0435943429244,0.984527033696,-0.0760249302403,0.984527033696,-0.0760249302403,0.0149133048356,0.0435943429244
1700000000.0,0.015362533076,0.046289792388,0.984007747867,-0.0807486137387,0.984007747867,-0.0807486137387,0.015362533076,0.046289792388
1800000000.0,0.0158370720995,0.048980162383,0.983459004819,-0.0854674262181,0.983459004819,-0.0854674262181,0.0158370720995,0.048980162383
1900000000.0,0.016336909361,0.0516651751425,0.982880814544,-0.0901810972896,0.982880814544,-0.0901810972896,0.016336909361,0.0516651751425
2000000000.0,0.0168620211297,0.0543445535328,0.982273198114,-0.0948893569909,0.982273198114,-0.0948893569909,0.0168620211297,0.0543445535328
2100000000.0,0.0174123738288,0.0570180211893,0.981636186347,-0.0995919359354,0.981636186347,-0.0995919359354,0.0174123738288,0.0570180211893
2200000000.0,0.0179879250964,0.0596853026386,0.980969818745,-0.104288565444,0.980969818745,-0.104288565444,0.0179879250964,0.0596853026386
2300000000.0,0.0185886246338,0.062346123409,0.980274142644,-0.108978977667,0.980274142644,-0.108978977667,0.0185886246338,0.062346123409
2400000000.0,0.0192144148948,0.0650002101326,0.97954921253,-0.113662905692,0.97954921253,-0.113662905692,0.0192144148948,0.0650002101326
2500000000.0,0.0198652316521,0.0676472906394,0.978795089473,-0.118340083649,0.978795089473,-0.118340083649,0.0198652316521,0.0676472906394
2600000000.0,0.0205410044664,0.0702870940457,0.978011840658,-0.123010246804,0.978011840658,-0.123010246804,0.0205410044664,0.0702870940457
2700000000.0,0.0212416570813,0.0729193508365,0.977199538987,-0.127673131646,0.977199538987,-0.127673131646,0.0212416570813,0.0729193508365
2800000000.0,0.021967107758,0.0755437929443,0.976358262755,-0.132328475979,0.976358262755,-0.132328475979,0.021967107758,0.0755437929443
2900000000.0,0.0227172695613,0.0781601538236,0.975488095354,-0.13697601899,0.975488095354,-0.13697601899,0.0227172695613,0.0781601538236
3000000000.0,0.0234920506083,0.0807681685214,0.974589125034,-0.141615501338,0.974589125034,-0.141615501338,0.0234920506083,0.0807681685214
3100000000.0,0.0242913542843,0.0833675737462,0.97366144468,-0.146246665216,0.97366144468,-0.146246665216,0.0242913542843,0.0833675737462
3200000000.0,0.0251150794342,0.0859581079326,0.972705151627,-0.150869254427,0.972705151627,-0.150869254427,0.0251150794342,0.0859581079326
3300000000.0,0.025963120532,0.0885395113045,0.971720347492,-0.155483014448,0.971720347492,-0.155483014448,0.025963120532,0.0885395113045
3400000000.0,0.0268353678334,0.0911115259357,0.970707138014,-0.160087692496,0.970707138014,-0.160087692496,0.0268353678334,0.0911115259357
3500000000.0,0.0277317075135,0.0936738958087,0.969665632926,-0.164683037588,0.969665632926,-0.164683037588,0.0277317075135,0.0936738958087
3600000000.0,0.028652021793,0.0962263668712,0.968595945826,-0.169268800603,0.968595945826,-0.169268800603,0.028652021793,0.0962263668712
3700000000.0,0.0295961890536,0.098768687091,0.967498194059,-0.173844734339,0.967498194059,-0.173844734339,0.0295961890536,0.098768687091
3800000000.0,0.0305640839456,0.101300606509,0.966372498616,-0.178410593568,0.966372498616,-0.178410593568,0.0305640839456,0.101300606509
3900000000.0,0.0315555774876,0.103821877292,0.965218984029,-0.182966135092,0.965218984029,-0.182966135092,0.0315555774876,0.103821877292
4000000000.0,0.0325705371612,0.10633225378,0.964037778282,-0.187511117795,0.964037778282,-0.187511117795,0.0325705371612,0.10633225378
4100000000.0,0.0336088269993,0.108831492537,0.962829012718,-0.192045302693,0.962829012718,-0.192045302693,0.0336088269993,0.108831492537
4200000000.0,0.0346703076711,0.111319352399,0.961592821958,-0.196568452982,0.961592821958,-0.196568452982,0.0346703076711,0.111319352399
4300000000.0,0.035754836563,0.113795594515,0.960329343821,-0.20108033409,0.960329343821,-0.20108033409,0.035754836563,0.113795594515
4400000000.0,0.0368622678562,0.116259982397,0.959038719242,-0.20558071372,0.959038719242,-0.20558071372,0.0368622678562,0.116259982397
4500000000.0,0.0379924526014,0.118712281959,0.957721092205,-0.210069361894,0.957721092205,-0.210069361894,0.0379924526014,0.118712281959
4600000000.0,0.0391452387923,0.121152261559,0.956376609662,-0.214546050998,0.956376609662,-0.214546050998,0.0391452387923,0.121152261559
4700000000.0,0.0403204714354,0.123579692041,0.955005421471,-0.219010555826,0.955005421471,-0.219010555826,0.0403204714354,0.123579692041
4800000000.0,0.04151799262,0.125994346774,0.953607680321,-0.223462653615,0.953607680321,-0.223462653615,0.04151799262,0.125994346774
4900000000.0,0.0427376415846,0.128396001688,0.952183541666,-0.227902124089,0.952183541666,-0.227902124089,0.0427376415846,0.128396001688
5000000000.0,0.0439792547841,0.130784435309,0.950733163664,-0.232328749497,0.950733163664,-0.232328749497,0.0439792547841,0.130784435309
5100000000.0,0.0452426659547,0.133159428799,0.949256707104,-0.236742314644,0.949256707104,-0.236742314644,0.0452426659547,0.133159428799
5200000000.0,0.0465277061779,0.135520765987,0.94775433535,-0.241142606933,0.94775433535,-0.241142606933,0.0465277061779,0.135520765987
5300000000.0,0.0478342039442,0.137868233402,0.94622621427,-0.245529416397,0.94622621427,-0.245529416397,0.0478342039442,0.137868233402
5400000000.0,0.0491619852156,0.140201620304,0.944672512181,-0.249902535728,0.944672512181,-0.249902535728,0.0491619852156,0.140201620304
5500000000.0,0.050510873488,0.142520718716,0.943093399784,-0.254261760314,0.943093399784,-0.254261760314,0.050510873488,0.142520718716
5600000000.0,0.0518806898523,0.144825323452,0.941489050099,-0.258606888265,0.941489050099,-0.258606888265,0.0518806898523,0.144825323452
5700000000.0,0.0532712530557,0.147115232144,0.939859638411,-0.262937720443,0.939859638411,-0.262937720443,0.0532712530557,0.147115232144
5800000000.0,0.0546823795622,0.14939024527,0.938205342204,-0.267254060493,0.938205342204,-0.267254060493,0.0546823795622,0.14939024527
5900000000.0,0.056113883613,0.15165016618,0.936526341106,-0.271555714863,0.936526341106,-0.271555714863,0.056113883613,0.15165016618
6000000000.0,0.0575655772862,0.153894801121,0.934822816825,-0.275842492835,0.934822816825,-0.275842492835,0.0575655772862,0.153894801121
6100000000.0,0.0590372705564,0.156123959254,0.933094953089,-0.280114206547,0.933094953089,-0.280114206547,0.0590372705564,0.156123959254
6200000000.0,0.0605287713541,0.158337452687,0.931342935591,-0.284370671015,0.931342935591,-0.284370671015,0.0605287713541,0.158337452687
6300000000.0,0.0620398856244,0.160535096484,0.92956695193,-0.288611704155,0.92956695193,-0.288611704155,0.0620398856244,0.160535096484
6400000000.0,0.0635704173862,0.162716708695,0.927767191546,-0.292837126804,0.927767191546,-0.292837126804,0.0635704173862,0.162716708695
6500000000.0,0.0651201687903,0.164882110367,0.925943845671,-0.29704676274,0.925943845671,-0.29704676274,0.0651201687903,0.164882110367
6600000000.0,0.0666889401775,0.167031125565,0.924097107261,-0.301240438698,0.924097107261,-0.301240438698,0.0666889401775,0.167031125565
6700000000.0,0.0682765301374,0.169163581387,0.922227170948,-0.305417984389,0.922227170948,-0.305417984389,0.0682765301374,0.169163581387
6800000000.0,0.0698827355651,0.171279307982,0.920334232973,-0.309579232513,0.920334232973,-0.309579232513,0.0698827355651,0.171279307982
6900000000.0,0.0715073517197,0.173378138558,0.918418491137,-0.313724018776,0.918418491137,-0.313724018776,0.0715073517197,0.173378138558
7000000000.0,0.0731501722809,0.175459909402,0.916480144737,-0.317852181904,0.916480144737,-0.317852181904,0.0731501722809,0.175459909402
7100000000.0,0.0748109894065,0.177524459885,0.914519394512,-0.321963563653,0.914519394512,-0.321963563653,0.0748109894065,0.177524459885
7200000000.0,0.0764895937888,0.17957163248,0.912536442587,-0.326058008821,0.912536442587,-0.326058008821,0.0764895937888,0.17957163248
7300000000.0,0.0781857747118,0.181601272764,0.910531492415,-0.330135365259,0.910531492415,-0.330135365259,0.0781857747118,0.181601272764
7400000000.0,0.0798993201065,0.183613229432,0.908504748721,-0.334195483878,0.908504748721,-0.334195483878,0.0798993201065,0.183613229432
7500000000.0,0.081630016608,0.185607354302,0.906456417447,-0.338238218661,0.906456417447,-0.338238218661,0.081630016608,0.185607354302
7600000000.0,0.0833776496103,0.187583502321,0.904386705695,-0.342263426665,0.904386705695,-0.342263426665,0.0833776496103,0.187583502321
7700000000.0,0.0851420033222,0.189541531575,0.902295821672,-0.346270968029,0.902295821672,-0.346270968029,0.0851420033222,0.189541531575
7800000000.0,0.0869228608226,0.191481303284,0.900183974635,-0.350260705978,0.900183974635,-0.350260705978,0.0869228608226,0.191481303284
7900000000.0,0.0887200041148,0.193402681816,0.898051374837,-0.354232506829,0.898051374837,-0.354232506829,0.0887200041148,0.193402681816
8000000000.0,0.0905332141811,0.195305534682,0.895898233472,-0.35818623999,0.895898233472,-0.35818623999,0.0905332141811,0.195305534682
8100000000.0,0.0923622710373,0.197189732538,0.893724762619,-0.362121777963,0.893724762619,-0.362121777963,0.0923622710373,0.197189732538
8200000000.0,0.094206953786,0.19905514919,0.891531175192,-0.366038996348,0.891531175192,-0.366038996348,0.094206953786,0.19905514919
8300000000.0,0.0960670406704,0.200901661587,0.889317684882,-0.369937773835,0.889317684882,-0.369937773835,0.0960670406704,0.200901661587
8400000000.0,0.097942309127,0.202729149824,0.887084506108,-0.373817992211,0.887084506108,-0.373817992211,0.097942309127,0.202729149824
8500000000.0,0.0998325358382,0.204537497137,0.884831853963,-0.377679536352,0.884831853963,-0.377679536352,0.0998325358382,0.204537497137
8600000000.0,0.101737496785,0.2063265899,0.88255994416,-0.381522294221,0.88255994416,-0.381522294221,0.101737496785,0.2063265899
8700000000.0,0.103656967298,0.208096317622,0.880268992983,-0.385346156866,0.880268992983,-0.385346156866,0.103656967298,0.208096317622
8800000000.0,0.10559072211,0.209846572939,0.877959217233,-0.389151018411,0.877959217233,-0.389151018411,0.10559072211,0.209846572939
8900000000.0,0.107538535406,0.211577251608,0.87563083418,-0.392936776053,0.87563083418,-0.392936776053,0.107538535406,0.211577251608
9000000000.0,0.109500180872,0.213288252504,0.873284061508,-0.396703330054,0.873284061508,-0.396703330054,0.109500180872,0.213288252504
9100000000.0,0.111475431749,0.214979477606,0.870919117269,-0.400450583732,0.870919117269,-0.400450583732,0.111475431749,0.214979477606
9200000000.0,0.113464060879,0.216650831992,0.868536219834,-0.404178443456,0.868536219834,-0.404178443456,0.113464060879,0.216650831992
9300000000.0,0.115465840757,0.218302223828,0.866135587838,-0.407886818631,0.866135587838,-0.407886818631,0.115465840757,0.218302223828
9400000000.0,0.117480543575,0.219933564357,0.863717440139,-0.411575621691,0.863717440139,-0.411575621691,0.117480543575,0.219933564357
9500000000.0,0.119507941274,0.22154476789,0.861281995763,-0.415244768089,0.861281995763,-0.415244768089,0.119507941274,0.22154476789
9600000000.0,0.121547805592,0.223135751789,0.858829473863,-0.418894176281,0.858829473863,-0.418894176281,0.121547805592,0.223135751789
9700000000.0,0.123599908106,0.224706436462,0.856360093667,-0.422523767716,0.856360093667,-0.422523767716,0.123599908106,0.224706436462
9800000000.0,0.125664020283,0.226256745339,0.853874074433,-0.426133466823,0.853874074433,-0.426133466823,0.125664020283,0.226256745339
9900000000.0,0.127739913524,0.227786604869,0.851371635404,-0.429723200995,0.851371635404,-0.429723200995,0.127739913524,0.227786604869
10000000000.0,0.12982735921,0.229295944494,0.848852995761,-0.433292900572,0.848852995761,-0.433292900572,0.12982735921,0.229295944494
