freq (GHz),S11_real,S11_imag,S21_real,S21_imag,S12_real,S12_imag,S22_real,S22_imag
100000000.0,-0.00130963203614,-0.0358385219254,0.998646500075,-0.0360946634055,0.998646500075,-0.0360946634055,-0.00130963203614,-0.0358385219254
200000000.0,-0.00521005357427,-0.071390041219,0.994745680524,-0.0719024151547,0.994745680524,-0.0719024151547,-0.00521005357427,-0.071390041219
300000000.0,-0.0116187940861,-0.106382104048,0.988336551468,-0.107150848063,0.988336551468,-0.107150848063,-0.0116187940861,-0.106382104048
400000000.0,-0.0204373668287,-0.140557069389,0.979517561815,-0.141582356245,0.979517561815,-0.141582356245,-0.0204373668287,-0.140557069389
500000000.0,-0.0315338536112,-0.173677911096,0.968420615144,-0.174959942486,0.968420615144,-0.174959942486,-0.0315338536112,-0.173677911096
600000000.0,-0.0447477207181,-0.205533112183,0.955206237645,-0.207072114428,0.955206237645,-0.207072114428,-0.0447477207181,-0.205533112183
700000000.0,-0.0598953850141,-0.235940358813,0.940058007934,-0.237736579534,0.940058007934,-0.237736579534,-0.0598953850141,-0.235940358813
800000000.0,-0.076776192229,-0.264748922084,0.923176577273,-0.266802627491,0.923176577273,-0.266802627491,-0.076776192229,-0.264748922084
900000000.0,-0.095178475547,-0.291840725588,0.904773610325,-0.294152198188,0.904773610325,-0.294152198188,-0.095178475547,-0.291840725588
1000000000.0,-0.114885394458,-0.317130185165,0.885065945969,-0.319699721779,0.885065945969,-0.319699721779,-0.114885394458,-0.317130185165
1100000000.0,-0.135680305793,-0.34056297464,0.864270226083,-0.343390884665,0.864270226083,-0.343390884665,-0.135680305793,-0.34056297464
1200000000.0,-0.157351482658,-0.362113915757,0.842598176495,-0.365200519619,0.842598176495,-0.365200519619,-0.157351482658,-0.362113915757
1300000000.0,-0.179696064443,-0.381784212067,0.820252656915,-0.385129839845,0.820252656915,-0.385129839845,-0.179696064443,-0.381784212067
1400000000.0,-0.202523185073,-0.399598247763,0.797424532631,-0.403203237946,0.797424532631,-0.403203237946,-0.202523185073,-0.399598247763
1500000000.0,-0.22565628232,-0.415600157397,0.774290365173,-0.419464855767,0.774290365173,-0.419464855767,-0.22565628232,-0.415600157397
1600000000.0,-0.248934634977,-0.429850346012,0.751010875118,-0.433975104636,0.751010875118,-0.433975104636,-0.248934634977,-0.429850346012
1700000000.0,-0.272214206174,-0.442422106249,0.727730098757,-0.446807282562,0.727730098757,-0.446807282562,-0.272214206174,-0.442422106249
1800000000.0,-0.295367890355,-0.453398443806,0.704575141107,-0.458044399786,0.704575141107,-0.458044399786,-0.295367890355,-0.453398443806
1900000000.0,-0.31828527003,-0.462869188537,0.681656419153,-0.467776289956,0.681656419153,-0.467776289956,-0.31828527003,-0.462869188537
2000000000.0,-0.340871988432,-0.47092843782,0.659068289184,-0.476097053569,0.659068289184,-0.476097053569,-0.340871988432,-0.47092843782
2100000000.0,-0.363048837927,-0.477672352993,0.63688995838,-0.483102854466,0.63688995838,-0.483102854466,-0.363048837927,-0.477672352993
2200000000.0,-0.384750653642,-0.483197309107,0.615186591178,-0.488890069654,0.615186591178,-0.488890069654,-0.384750653642,-0.483197309107
2300000000.0,-0.405925089084,-0.487598383055,0.594010533653,-0.493553777483,0.594010533653,-0.493553777483,-0.405925089084,-0.487598383055
2400000000.0,-0.426531337094,-0.490968154625,0.573402592559,-0.497186558749,0.573402592559,-0.497186558749,-0.426531337094,-0.490968154625
2500000000.0,-0.446538846359,-0.493395788694,0.553393318817,-0.499877578942,0.553393318817,-0.499877578942,-0.446538846359,-0.493395788694
2600000000.0,-0.465926071602,-0.494966363692,0.534004257323,-0.501711916744,0.534004257323,-0.501711916744,-0.465926071602,-0.494966363692
2700000000.0,-0.484679284919,-0.495760410862,0.515249135611,-0.502770103335,0.515249135611,-0.502770103335,-0.484679284919,-0.495760410862
2800000000.0,-0.502791466756,-0.495853630099,0.497134972873,-0.503127838266,0.497134972873,-0.503127838266,-0.502791466756,-0.495853630099
2900000000.0,-0.520261287631,-0.495316750516,0.479663098236,-0.502855850055,0.479663098236,-0.502855850055,-0.520261287631,-0.495316750516
3000000000.0,-0.537092185927,-0.494215507031,0.462830072971,-0.50201987281,0.462830072971,-0.50201987281,-0.537092185927,-0.494215507031
3100000000.0,-0.553291542633,-0.492610707685,0.446628515751,-0.500680713575,0.446628515751,-0.500680713575,-0.553291542633,-0.492610707685
3200000000.0,-0.568869950694,-0.490558369925,0.431047833296,-0.498894388633,0.431047833296,-0.498894388633,-0.568869950694,-0.490558369925
3300000000.0,-0.583840574361,-0.488109907429,0.416074861028,-0.496712310363,0.416074861028,-0.496712310363,-0.583840574361,-0.488109907429
3400000000.0,-0.598218592491,-0.485312352222,0.401694419769,-0.494181509372,0.401694419769,-0.494181509372,-0.598218592491,-0.485312352222
3500000000.0,-0.612020718889,-0.4822085996,0.387889795394,-0.491344879441,0.387889795394,-0.491344879441,-0.612020718889,-0.4822085996
3600000000.0,-0.62526479244,-0.478837665886,0.374643148708,-0.488241435302,0.374643148708,-0.488241435302,-0.62526479244,-0.478837665886
3700000000.0,-0.637969429712,-0.475234951165,0.361935862833,-0.484906575383,0.361935862833,-0.484906575383,-0.637969429712,-0.475234951165
3800000000.0,-0.650153732991,-0.471432500944,0.349748835178,-0.481372343491,0.349748835178,-0.481372343491,-0.650153732991,-0.471432500944
3900000000.0,-0.661837047023,-0.467459262191,0.338062720697,-0.477667684861,0.338062720697,-0.477667684861,-0.661837047023,-0.467459262191
4000000000.0,-0.673038758274,-0.463341330461,0.326858132627,-0.473818693294,0.326858132627,-0.473818693294,-0.673038758274,-0.463341330461
4100000000.0,-0.683778131011,-0.459102185782,0.316115806405,-0.469848847058,0.316115806405,-0.469848847058,-0.683778131011,-0.459102185782
4200000000.0,-0.69407417509,-0.454762915814,0.305816731885,-0.465779232053,0.305816731885,-0.465779232053,-0.69407417509,-0.454762915814
4300000000.0,-0.703945540864,-0.450342425398,0.295942258424,-0.461628751372,0.295942258424,-0.461628751372,-0.703945540864,-0.450342425398
4400000000.0,-0.713410437154,-0.445857632107,0.286474176915,-0.457414320863,0.286474176915,-0.457414320863,-0.713410437154,-0.445857632107
4500000000.0,-0.72248656872,-0.441323647783,0.277394782313,-0.453151050667,0.277394782313,-0.453151050667,-0.72248656872,-0.441323647783
4600000000.0,-0.73119109012,-0.43675394632,0.268686919778,-0.448852413015,0.268686919778,-0.448852413015,-0.73119109012,-0.43675394632
4700000000.0,-0.739540573255,-0.432160518141,0.260334017129,-0.444530396706,0.260334017129,-0.444530396706,-0.739540573255,-0.432160518141
4800000000.0,-0.747550986268,-0.427554011971,0.252320105943,-0.44019564889,0.252320105943,-0.44019564889,-0.747550986268,-0.427554011971
4900000000.0,-0.755237681805,-0.422943864583,0.244629833298,-0.435857604812,0.244629833298,-0.435857604812,-0.755237681805,-0.422943864583
5000000000.0,-0.76261539291,-0.418338419246,0.237248465871,-0.431524606272,0.237248465871,-0.431524606272,-0.76261539291,-0.418338419246
5100000000.0,-0.769698235116,-0.41374503364,0.230161887856,-0.427204009541,0.230161887856,-0.427204009541,-0.769698235116,-0.41374503364
5200000000.0,-0.776499713488,-0.409170177994,0.223356593912,-0.4229022835,0.223356593912,-0.4229022835,-0.776499713488,-0.409170177994
5300000000.0,-0.783032733577,-0.404619524189,0.216819678215,-0.418625098747,0.216819678215,-0.418625098747,-0.783032733577,-0.404619524189
5400000000.0,-0.789309615418,-0.400098026546,0.210538820456,-0.41437740839,0.210538820456,-0.41437740839,-0.789309615418,-0.400098026546
5500000000.0,-0.795342109834,-0.395609994996,0.20450226954,-0.410163521215,0.20450226954,-0.410163521215,-0.795342109834,-0.395609994996
5600000000.0,-0.801141416438,-0.391159161266,0.19869882558,-0.405987167879,0.19869882558,-0.405987167879,-0.801141416438,-0.391159161266
5700000000.0,-0.806718202833,-0.38674873871,0.193117820702,-0.401851560736,0.193117820702,-0.401851560736,-0.806718202833,-0.38674873871
5800000000.0,-0.812082624595,-0.382381476332,0.187749099056,-0.397759447866,0.187749099056,-0.397759447866,-0.812082624595,-0.382381476332
5900000000.0,-0.817244345695,-0.37805970755,0.182582996399,-0.39371316184,0.182582996399,-0.39371316184,-0.817244345695,-0.37805970755
6000000000.0,-0.822212559085,-0.373785394169,0.177610319504,-0.389714663688,0.177610319504,-0.389714663688,-0.822212559085,-0.373785394169
6100000000.0,-0.82699600724,-0.369560166022,0.172822325624,-0.385765582548,0.172822325624,-0.385765582548,-0.82699600724,-0.369560166022
6200000000.0,-0.831603002454,-0.365385356677,0.16821070219,-0.381867251372,0.16821070219,-0.381867251372,-0.831603002454,-0.365385356677
6300000000.0,-0.836041446777,-0.361262035607,0.163767546877,-0.378020739086,0.163767546877,-0.378020739086,-0.836041446777,-0.361262035607
6400000000.0,-0.840318851471,-0.357191037126,0.159485348147,-0.374226879544,0.159485348147,-0.374226879544,-0.840318851471,-0.357191037126
6500000000.0,-0.844442355907,-0.353172986447,0.155356966351,-0.370486297568,0.155356966351,-0.370486297568,-0.844442355907,-0.353172986447
6600000000.0,-0.84841874585,-0.349208323106,0.151375615447,-0.366799432383,0.151375615447,-0.366799432383,-0.84841874585,-0.349208323106
6700000000.0,-0.852254471077,-0.345297322028,0.147534845378,-0.36316655868,0.147534845378,-0.36316655868,-0.852254471077,-0.345297322028
6800000000.0,-0.855955662324,-0.341440112464,0.143828525129,-0.359587805549,0.143828525129,-0.359587805549,-0.855955662324,-0.341440112464
6900000000.0,-0.859528147516,-0.337636695003,0.140250826491,-0.356063173495,0.140250826491,-0.356063173495,-0.859528147516,-0.337636695003
7000000000.0,-0.86297746731,-0.333886956855,0.136796208524,-0.35259254972,0.136796208524,-0.35259254972,-0.86297746731,-0.333886956855
7100000000.0,-0.866308889923,-0.330190685574,0.133459402726,-0.349175721839,0.133459402726,-0.349175721839,-0.866308889923,-0.330190685574
7200000000.0,-0.869527425273,-0.326547581369,0.130235398891,-0.345812390198,0.130235398891,-0.345812390198,-0.869527425273,-0.326547581369
7300000000.0,-0.872637838441,-0.322957268158,0.127119431652,-0.342502178926,0.127119431652,-0.342502178926,-0.872637838441,-0.322957268158
7400000000.0,-0.875644662463,-0.319419303475,0.124106967679,-0.339244645834,0.124106967679,-0.339244645834,-0.875644662463,-0.319419303475
7500000000.0,-0.878552210491,-0.31593318735,0.121193693529,-0.336039291306,0.121193693529,-0.336039291306,-0.878552210491,-0.31593318735
7600000000.0,-0.881364587323,-0.312498370272,0.118375504109,-0.332885566249,0.118375504109,-0.332885566249,-0.881364587323,-0.312498370272
7700000000.0,-0.884085700336,-0.309114260308,0.115648491744,-0.329782879219,0.115648491744,-0.329782879219,-0.884085700336,-0.309114260308
7800000000.0,-0.886719269858,-0.305780229482,0.113008935808,-0.326730602795,0.113008935808,-0.326730602795,-0.886719269858,-0.305780229482
7900000000.0,-0.889268838969,-0.302495619472,0.110453292919,-0.32372807928,0.110453292919,-0.32372807928,-0.889268838969,-0.302495619472
8000000000.0,-0.891737782801,-0.29925974671,0.107978187641,-0.320774625792,0.107978187641,-0.320774625792,-0.891737782801,-0.29925974671
8100000000.0,-0.894129317319,-0.296071906922,0.105580403701,-0.31786953881,0.105580403701,-0.31786953881,-0.894129317319,-0.296071906922
8200000000.0,-0.896446507639,-0.292931379188,0.103256875676,-0.315012098232,0.103256875676,-0.315012098232,-0.896446507639,-0.292931379188
8300000000.0,-0.898692275886,-0.289837429552,0.101004681128,-0.312201570978,0.101004681128,-0.312201570978,-0.898692275886,-0.289837429552
8400000000.0,-0.900869408629,-0.286789314237,0.0988210331728,-0.309437214214,0.0988210331728,-0.309437214214,-0.900869408629,-0.286789314237
8500000000.0,-0.902980563905,-0.2837862825,0.0967032734574,-0.306718278196,0.0967032734574,-0.306718278196,-0.902980563905,-0.2837862825
8600000000.0,-0.905028277856,-0.280827579169,0.0946488655177,-0.304044008814,0.0946488655177,-0.304044008814,-0.905028277856,-0.280827579169
8700000000.0,-0.90701497101,-0.277912446882,0.0926553885044,-0.301413649822,0.0926553885044,-0.301413649822,-0.90701497101,-0.277912446882
8800000000.0,-0.908942954204,-0.27504012807,0.0907205312524,-0.298826444831,0.0907205312524,-0.298826444831,-0.908942954204,-0.27504012807
8900000000.0,-0.910814434195,-0.272209866711,0.088842086677,-0.29628163905,0.088842086677,-0.29628163905,-0.910814434195,-0.272209866711
9000000000.0,-0.912631518949,-0.269420909862,0.087017946478,-0.293778480826,0.087017946478,-0.293778480826,-0.912631518949,-0.269420909862
9100000000.0,-0.914396222653,-0.26667250901,0.0852460961339,-0.291316222988,0.0852460961339,-0.291316222988,-0.914396222653,-0.26667250901
9200000000.0,-0.91611047044,-0.26396392125,0.0835246101724,-0.28889412403,0.0835246101724,-0.28889412403,-0.91611047044,-0.26396392125
9300000000.0,-0.917776102862,-0.26129441031,0.0818516476979,-0.28651144913,0.0818516476979,-0.28651144913,-0.917776102862,-0.26129441031
9400000000.0,-0.91939488012,-0.258663247443,0.0802254481655,-0.284167471042,0.0802254481655,-0.284167471042,-0.91939488012,-0.258663247443
9500000000.0,-0.920968486055,-0.256069712186,0.0786443273839,-0.281861470859,0.0786443273839,-0.281861470859,-0.920968486055,-0.256069712186
9600000000.0,-0.922498531931,-0.253513093023,0.077106673737,-0.279592738667,0.077106673737,-0.279592738667,-0.922498531931,-0.253513093023
9700000000.0,-0.923986560005,-0.250992687938,0.07561094461,-0.277360574104,0.07561094461,-0.277360574104,-0.923986560005,-0.250992687938
9800000000.0,-0.925434046912,-0.248507804882,0.074155663009,-0.275164286824,0.074155663009,-0.275164286824,-0.925434046912,-0.248507804882
9900000000.0,-0.926842406859,-0.246057762165,0.0727394143629,-0.273003196886,0.0727394143629,-0.273003196886,-0.926842406859,-0.246057762165
10000000000.0,-0.928212994653,-0.243641888775,0.0713608434973,-0.270876635074,0.0713608434973,-0.270876635074,-0.928212994653,-0.243641888775
