freq (GHz),S11_real,S11_imag,S21_real,S21_imag,S12_real,S12_imag,S22_real,S22_imag
100000000.0,0.101547375296,0.00401973173546,0.898449869814,-0.0051767047071,0.898449869814,-0.0051767047071,0.101547375296,0.00401973173546
200000000.0,0.102215517111,0.00802646768365,0.897778583382,-0.0103404255372,0.897778583382,-0.0103404255372,0.102215517111,0.00802646768365
300000000.0,0.102765647987,0.0120245905297,0.897223917467,-0.0154955551034,0.897223917467,-0.0154955551034,0.102765647987,0.0120245905297
400000000.0,0.103277655391,0.0160151897722,0.896705984048,-0.0206431917416,0.896705984048,-0.0206431917416,0.103277655391,0.0160151897722
500000000.0,0.103782328548,0.0199985898842,0.896193993394,-0.0257836682138,0.896193993394,-0.0257836682138,0.103782328548,0.0199985898842
600000000.0,0.104295356736,0.0239747776201,0.895672255729,-0.030916979205,0.895672255729,-0.030916979205,0.104295356736,0.0239747776201
700000000.0,0.104825981458,0.0279435556373,0.895131529046,-0.0360429350428,0.895131529046,-0.0360429350428,0.104825981458,0.0279435556373
800000000.0,0.105380157197,0.0319046138698,0.894565858347,-0.0411612331281,0.894565858347,-0.0411612331281,0.105380157197,0.0319046138698
900000000.0,0.105961959963,0.0358575679714,0.893971167086,-0.0462714964175,0.893971167086,-0.0462714964175,0.105961959963,0.0358575679714
1000000000.0,0.106574301846,0.0398019821775,0.893344542617,-0.0513732963112,0.893344542617,-0.0513732963112,0.106574301846,0.0398019821775
1100000000.0,0.107219328546,0.0437373839138,0.892683838654,-0.0564661672817,0.892683838654,-0.0564661672817,0.107219328546,0.0437373839138
1200000000.0,0.10789865645,0.0476632736642,0.8919874382,-0.0615496167577,0.8919874382,-0.0615496167577,0.10789865645,0.0476632736642
1300000000.0,0.108613521916,0.0515791319391,0.891254104258,-0.0666231321029,0.891254104258,-0.0666231321029,0.108613521916,0.0515791319391
1400000000.0,0.109364879497,0.0554844243774,0.890482881605,-0.071686185729,0.890482881605,-0.071686185729,0.109364879497,0.0554844243774
1500000000.0,0.11015346895,0.0593786056026,0.889673029784,-0.0767382389588,0.889673029784,-0.0767382389588,0.11015346895,0.0593786056026
1600000000.0,0.110979862362,0.0632611222139,0.888823975978,-0.0817787450239,0.888823975978,-0.0817787450239,0.110979862362,0.0632611222139
1700000000.0,0.111844498167,0.0671314151615,0.887935280987,-0.0868071514466,0.887935280987,-0.0868071514466,0.111844498167,0.0671314151615
1800000000.0,0.11274770627,0.0709889216737,0.887006614112,-0.0918229019703,0.887006614112,-0.0918229019703,0.11274770627,0.0709889216737
1900000000.0,0.113689726963,0.0748330768466,0.886037734233,-0.0968254381546,0.886037734233,-0.0968254381546,0.113689726963,0.0748330768466
2000000000.0,0.11467072543,0.07866331498,0.885028475307,-0.101814200714,0.885028475307,-0.101814200714,0.11467072543,0.07866331498
2100000000.0,0.115690803036,0.082479070714,0.883978735071,-0.106788630657,0.883978735071,-0.106788630657,0.115690803036,0.082479070714
2200000000.0,0.116750006259,0.0862797800106,0.882888466124,-0.111748170274,0.882888466124,-0.111748170274,0.116750006259,0.0862797800106
2300000000.0,0.117848333829,0.0900648810103,0.881757668772,-0.116692263991,0.881757668772,-0.116692263991,0.117848333829,0.0900648810103
2400000000.0,0.118985742521,0.0938338147881,0.880586385248,-0.121620359133,0.880586385248,-0.121620359133,0.118985742521,0.0938338147881
2500000000.0,0.1201621519,0.0975860260262,0.879374694958,-0.126531906595,0.879374694958,-0.126531906595,0.1201621519,0.0975860260262
2600000000.0,0.121377448254,0.101320963618,0.878122710552,-0.131426361451,0.878122710552,-0.131426361451,0.121377448254,0.101320963618
2700000000.0,0.122631487888,0.105038081215,0.876830574632,-0.136303183497,0.876830574632,-0.136303183497,0.122631487888,0.105038081215
2800000000.0,0.123924099901,0.10873683772,0.875498456967,-0.141161837756,0.875498456967,-0.141161837756,0.123924099901,0.10873683772
2900000000.0,0.125255088563,0.112416697746,0.874126552125,-0.146001794928,0.874126552125,-0.146001794928,0.125255088563,0.112416697746
3000000000.0,0.126624235356,0.11607713203,0.872715077426,-0.150822531808,0.872715077426,-0.150822531808,0.126624235356,0.11607713203
3100000000.0,0.12803130075,0.119717617816,0.87126427117,-0.155623531675,0.87126427117,-0.155623531675,0.12803130075,0.119717617816
3200000000.0,0.129476025752,0.123337639214,0.869774391084,-0.160404284647,0.869774391084,-0.160404284647,0.129476025752,0.123337639214
3300000000.0,0.130958133277,0.126936687528,0.868245712953,-0.16516428801,0.868245712953,-0.16516428801,0.130958133277,0.126936687528
3400000000.0,0.132477329369,0.13051426156,0.866678529399,-0.169903046527,0.866678529399,-0.169903046527,0.132477329369,0.13051426156
3500000000.0,0.134033304293,0.134069867897,0.865073148792,-0.174620072722,0.865073148792,-0.174620072722,0.134033304293,0.134069867897
3600000000.0,0.135625733518,0.137603021174,0.863429894257,-0.179314887147,0.863429894257,-0.179314887147,0.135625733518,0.137603021174
3700000000.0,0.137254278618,0.141113244324,0.861749102785,-0.183987018628,0.861749102785,-0.183987018628,0.137254278618,0.141113244324
3800000000.0,0.138918588091,0.144600068802,0.860031124409,-0.188636004498,0.860031124409,-0.188636004498,0.138918588091,0.144600068802
3900000000.0,0.140618298114,0.148063034804,0.858276321445,-0.193261390807,0.858276321445,-0.193261390807,0.140618298114,0.148063034804
4000000000.0,0.142353033245,0.151501691462,0.856485067798,-0.197862732526,0.856485067798,-0.197862732526,0.142353033245,0.151501691462
4100000000.0,0.144122407074,0.154915597031,0.854657748303,-0.202439593727,0.854657748303,-0.202439593727,0.144122407074,0.154915597031
4200000000.0,0.145926022835,0.158304319056,0.852794758118,-0.206991547761,0.852794758118,-0.206991547761,0.145926022835,0.158304319056
4300000000.0,0.147763473983,0.161667434535,0.850896502147,-0.211518177407,0.850896502147,-0.211518177407,0.147763473983,0.161667434535
4400000000.0,0.149634344736,0.165004530059,0.848963394496,-0.216019075028,0.848963394496,-0.216019075028,0.149634344736,0.165004530059
4500000000.0,0.15153821059,0.168315201947,0.846995857955,-0.220493842697,0.846995857955,-0.220493842697,0.15153821059,0.168315201947
4600000000.0,0.153474638817,0.17159905637,0.844994323509,-0.224942092324,0.844994323509,-0.224942092324,0.153474638817,0.17159905637
4700000000.0,0.155443188932,0.174855709457,0.842959229864,-0.229363445762,0.842959229864,-0.229363445762,0.155443188932,0.174855709457
4800000000.0,0.157443413143,0.178084787399,0.840891022994,-0.233757534912,0.840891022994,-0.233757534912,0.157443413143,0.178084787399
4900000000.0,0.159474856792,0.181285926536,0.838790155711,-0.238124001811,0.838790155711,-0.238124001811,0.159474856792,0.181285926536
5000000000.0,0.161537058767,0.184458773435,0.836657087242,-0.242462498709,0.836657087242,-0.242462498709,0.161537058767,0.184458773435
5100000000.0,0.163629551912,0.187602984961,0.834492282825,-0.246772688143,0.834492282825,-0.246772688143,0.163629551912,0.187602984961
5200000000.0,0.16575186342,0.190718228334,0.832296213315,-0.251054242991,0.832296213315,-0.251054242991,0.16575186342,0.190718228334
5300000000.0,0.167903515209,0.193804181181,0.830069354805,-0.255306846528,0.830069354805,-0.255306846528,0.167903515209,0.193804181181
5400000000.0,0.170084024295,0.196860531577,0.827812188257,-0.259530192462,0.827812188257,-0.259530192462,0.170084024295,0.196860531577
5500000000.0,0.172292903153,0.199886978073,0.82552519914,-0.263723984971,0.82552519914,-0.263723984971,0.172292903153,0.199886978073
5600000000.0,0.174529660065,0.202883229726,0.823208877079,-0.267887938722,0.823208877079,-0.267887938722,0.174529660065,0.202883229726
5700000000.0,0.176793799463,0.205849006107,0.820863715517,-0.27202177889,0.820863715517,-0.27202177889,0.176793799463,0.205849006107
5800000000.0,0.179084822259,0.20878403731,0.818490211378,-0.276125241164,0.818490211378,-0.276125241164,0.179084822259,0.20878403731
5900000000.0,0.181402226175,0.211688063952,0.816088864744,-0.280198071742,0.816088864744,-0.280198071742,0.181402226175,0.211688063952
6000000000.0,0.183745506057,0.214560837163,0.813660178538,-0.284240027329,0.813660178538,-0.284240027329,0.183745506057,0.214560837163
6100000000.0,0.186114154186,0.217402118568,0.811204658213,-0.288250875113,0.811204658213,-0.288250875113,0.186114154186,0.217402118568
6200000000.0,0.188507660582,0.220211680263,0.808722811446,-0.292230392746,0.808722811446,-0.292230392746,0.188507660582,0.220211680263
6300000000.0,0.190925513297,0.222989304786,0.806215147848,-0.296178368313,0.806215147848,-0.296178368313,0.190925513297,0.222989304786
6400000000.0,0.193367198708,0.225734785074,0.803682178671,-0.300094600291,0.803682178671,-0.300094600291,0.193367198708,0.225734785074
6500000000.0,0.195832201797,0.228447924423,0.801124416524,-0.303978897507,0.801124416524,-0.303978897507,0.195832201797,0.228447924423
6600000000.0,0.198320006429,0.231128536434,0.7985423751,-0.307831079085,0.7985423751,-0.307831079085,0.198320006429,0.231128536434
6700000000.0,0.20083009562,0.233776444957,0.795936568905,-0.311650974389,0.795936568905,-0.311650974389,0.20083009562,0.233776444957
6800000000.0,0.203361951804,0.236391484023,0.793307512991,-0.315438422961,0.793307512991,-0.315438422961,0.203361951804,0.236391484023
6900000000.0,0.205915057084,0.238973497779,0.790655722705,-0.319193274449,0.790655722705,-0.319193274449,0.205915057084,0.238973497779
7000000000.0,0.208488893492,0.241522340411,0.787981713431,-0.322915388533,0.787981713431,-0.322915388533,0.208488893492,0.241522340411
7100000000.0,0.211082943224,0.24403787606,0.785286000352,-0.326604634844,0.785286000352,-0.326604634844,0.211082943224,0.24403787606
7200000000.0,0.21369668889,0.246519978743,0.782569098202,-0.330260892881,0.782569098202,-0.330260892881,0.21369668889,0.246519978743
7300000000.0,0.216329613736,0.248968532255,0.779831521041,-0.333884051914,0.779831521041,-0.333884051914,0.216329613736,0.248968532255
7400000000.0,0.21898120188,0.251383430074,0.777073782024,-0.337474010894,0.777073782024,-0.337474010894,0.21898120188,0.251383430074
7500000000.0,0.221650938529,0.253764575265,0.774296393181,-0.34103067835,0.774296393181,-0.34103067835,0.221650938529,0.253764575265
7600000000.0,0.224338310192,0.25611188037,0.7714998652,-0.344553972285,0.7714998652,-0.344553972285,0.224338310192,0.25611188037
7700000000.0,0.227042804894,0.258425267303,0.76868470722,-0.348043820065,0.76868470722,-0.348043820065,0.227042804894,0.258425267303
7800000000.0,0.229763912377,0.260704667231,0.765851426628,-0.35150015831,0.765851426628,-0.35150015831,0.229763912377,0.260704667231
7900000000.0,0.232501124297,0.262950020463,0.763000528858,-0.354922932773,0.763000528858,-0.354922932773,0.232501124297,0.262950020463
8000000000.0,0.235253934416,0.265161276326,0.760132517201,-0.358312098221,0.760132517201,-0.358312098221,0.235253934416,0.265161276326
8100000000.0,0.238021838787,0.267338393042,0.757247892623,-0.361667618312,0.757247892623,-0.361667618312,0.238021838787,0.267338393042
8200000000.0,0.240804335936,0.269481337599,0.754347153577,-0.364989465469,0.754347153577,-0.364989465469,0.240804335936,0.269481337599
8300000000.0,0.243600927036,0.271590085624,0.751430795838,-0.368277620744,0.751430795838,-0.368277620744,0.243600927036,0.271590085624
8400000000.0,0.246411116072,0.273664621247,0.748499312325,-0.371532073694,0.748499312325,-0.371532073694,0.246411116072,0.273664621247
8500000000.0,0.249234410007,0.275704936964,0.745553192946,-0.374752822236,0.745553192946,-0.374752822236,0.249234410007,0.275704936964
8600000000.0,0.252070318941,0.277711033505,0.742592924436,-0.377939872518,0.742592924436,-0.377939872518,0.252070318941,0.277711033505
8700000000.0,0.254918356256,0.279682919687,0.739618990208,-0.381093238769,0.739618990208,-0.381093238769,0.254918356256,0.279682919687
8800000000.0,0.257778038768,0.281620612273,0.736631870205,-0.384212943167,0.736631870205,-0.384212943167,0.257778038768,0.281620612273
8900000000.0,0.260648886863,0.283524135829,0.733632040761,-0.387299015686,0.733632040761,-0.387299015686,0.260648886863,0.283524135829
9000000000.0,0.263530424638,0.285393522577,0.730619974466,-0.390351493953,0.730619974466,-0.390351493953,0.263530424638,0.285393522577
9100000000.0,0.266422180021,0.287228812248,0.727596140036,-0.393370423103,0.727596140036,-0.393370423103,0.266422180021,0.287228812248
9200000000.0,0.269323684902,0.289030051929,0.724561002189,-0.396355855625,0.724561002189,-0.396355855625,0.269323684902,0.289030051929
9300000000.0,0.272234475252,0.290797295918,0.721515021526,-0.399307851215,0.721515021526,-0.399307851215,0.272234475252,0.290797295918
9400000000.0,0.27515409123,0.29253060557,0.71845865442,-0.402226476625,0.71845865442,-0.402226476625,0.27515409123,0.29253060557
9500000000.0,0.278082077297,0.29423004914,0.715392352904,-0.405111805508,0.715392352904,-0.405111805508,0.278082077297,0.29423004914
9600000000.0,0.281017982317,0.29589570164,0.712316564572,-0.407963918266,0.712316564572,-0.407963918266,0.281017982317,0.29589570164
9700000000.0,0.283961359652,0.297527644675,0.709231732475,-0.410782901897,0.709231732475,-0.410782901897,0.283961359652,0.297527644675
9800000000.0,0.286911767261,0.299125966293,0.706138295038,-0.413568849841,0.706138295038,-0.413568849841,0.286911767261,0.299125966293
9900000000.0,0.289868767781,0.300690760832,0.703036685963,-0.416321861823,0.703036685963,-0.416321861823,0.289868767781,0.300690760832
10000000000.0,0.292831928613,0.302222128762,0.69992733415,-0.419042043703,0.69992733415,-0.419042043703,0.292831928613,0.302222128762
