freq (GHz),S11_real,S11_imag,S21_real,S21_imag,S12_real,S12_imag,S22_real,S22_imag
100000000.0,-0.00138247766451,-0.0382936553302,0.998316073857,-0.0389588110032,0.998316073857,-0.0389588110032,-0.00138247766451,-0.0382936553302
200000000.0,-0.00587530087781,-0.0762374911278,0.993820529494,-0.0775678658557,0.993820529494,-0.0775678658557,-0.00587530087781,-0.0762374911278
300000000.0,-0.0132502157035,-0.113497967347,0.986442965961,-0.115493667628,0.986442965961,-0.115493667628,-0.0132502157035,-0.113497967347
400000000.0,-0.0233792675894,-0.14976133311,0.976311078134,-0.152422502042,0.976311078134,-0.152422502042,-0.0233792675894,-0.14976133311
500000000.0,-0.0360916074017,-0.184741904545,0.96359561528,-0.188068718735,0.96359561528,-0.188068718735,-0.0360916074017,-0.184741904545
600000000.0,-0.0511804011668,-0.218188733054,0.948503360372,-0.222181400618,0.948503360372,-0.222181400618,-0.0511804011668,-0.218188733054
700000000.0,-0.0684108120783,-0.249890382819,0.931269119926,-0.254549141941,0.931269119926,-0.254549141941,-0.0684108120783,-0.249890382819
800000000.0,-0.087528477577,-0.279677707211,0.91214723668,-0.285002825018,0.91214723668,-0.285002825018,-0.087528477577,-0.279677707211
900000000.0,-0.108267952611,-0.307424674646,0.891403141776,-0.313416446303,0.891403141776,-0.313416446303,-0.108267952611,-0.307424674646
1000000000.0,-0.130360662456,-0.333047429693,0.869305399635,-0.339706177645,0.869305399635,-0.339706177645,-0.130360662456,-0.333047429693
1100000000.0,-0.153542008744,-0.356501873485,0.846118600654,-0.36382794681,0.846118600654,-0.36382794681,-0.153542008744,-0.356501873485
1200000000.0,-0.177557386764,-0.37778010439,0.822097343148,-0.385773878237,0.822097343148,-0.385773878237,-0.177557386764,-0.37778010439
1300000000.0,-0.202166986186,-0.396906077214,0.79748143214,-0.40556795231,0.79748143214,-0.40556795231,-0.202166986186,-0.396906077214
1400000000.0,-0.227149349464,-0.41393082345,0.772492320656,-0.423261225658,0.772492320656,-0.423261225658,-0.227149349464,-0.41393082345
1500000000.0,-0.25230374474,-0.428927535109,0.747330736603,-0.438926915036,0.747330736603,-0.438926915036,-0.25230374474,-0.428927535109
1600000000.0,-0.277451469818,-0.441986760246,0.72217537865,-0.452655592886,0.72217537865,-0.452655592886,-0.277451469818,-0.441986760246
1700000000.0,-0.302436240725,-0.453211897995,0.697182527556,-0.464550682409,0.697182527556,-0.464550682409,-0.302436240725,-0.453211897995
1800000000.0,-0.327123835279,-0.462715121822,0.672486402526,-0.474724380838,0.672486402526,-0.474724380838,-0.327123835279,-0.462715121822
1900000000.0,-0.351401162779,-0.470613806561,0.648200091464,-0.48329408651,0.648200091464,-0.48329408651,-0.351401162779,-0.470613806561
2000000000.0,-0.375174919996,-0.477027490475,0.624416894933,-0.490379360945,0.624416894933,-0.490379360945,-0.375174919996,-0.477027490475
2100000000.0,-0.398369975272,-0.482075369013,0.601211942027,-0.496099422619,0.601211942027,-0.496099422619,-0.398369975272,-0.482075369013
2200000000.0,-0.420927600332,-0.485874292049,0.578643958525,-0.500571144225,0.578643958525,-0.500571144225,-0.420927600332,-0.485874292049
2300000000.0,-0.442803646231,-0.488537220067,0.556757090931,-0.503907508878,0.556757090931,-0.503907508878,-0.442803646231,-0.488537220067
2400000000.0,-0.463966737612,-0.490172085625,0.535582712189,-0.506216471586,0.535582712189,-0.506216471586,-0.463966737612,-0.490172085625
2500000000.0,-0.484396539453,-0.490881002828,0.515141154932,-0.507600168746,0.515141154932,-0.507600168746,-0.484396539453,-0.490881002828
2600000000.0,-0.504082133304,-0.490759768089,0.495443335224,-0.508154418908,0.495443335224,-0.508154418908,-0.504082133304,-0.490759768089
2700000000.0,-0.523020525941,-0.489897598685,0.476492243906,-0.507968461355,0.476492243906,-0.507968461355,-0.523020525941,-0.489897598685
2800000000.0,-0.541215302204,-0.488377060647,0.45828429374,-0.507124883991,0.45828429374,-0.507124883991,-0.541215302204,-0.488377060647
2900000000.0,-0.55867542537,-0.486274143265,0.440810519041,-0.505699697871,0.440810519041,-0.505699697871,-0.55867542537,-0.486274143265
3000000000.0,-0.57541418224,-0.483658443645,0.424057630573,-0.503762521755,0.424057630573,-0.503762521755,-0.57541418224,-0.483658443645
3100000000.0,-0.591448265947,-0.480593430606,0.408008932744,-0.501376846027,0.408008932744,-0.501376846027,-0.591448265947,-0.480593430606
3200000000.0,-0.606796986764,-0.477136762738,0.39264511279,-0.498600350747,0.39264511279,-0.498600350747,-0.606796986764,-0.477136762738
3300000000.0,-0.621481599701,-0.473340640321,0.377944913177,-0.495485257597,0.377944913177,-0.495485257597,-0.621481599701,-0.473340640321
3400000000.0,-0.635524737041,-0.469252175137,0.36388569906,-0.492078699685,0.36388569906,-0.492078699685,-0.635524737041,-0.469252175137
3500000000.0,-0.648949933985,-0.464913765823,0.350443932635,-0.488423096917,0.350443932635,-0.488423096917,-0.648949933985,-0.464913765823
3600000000.0,-0.661781235981,-0.460363469479,0.337595565811,-0.484556527607,0.337595565811,-0.484556527607,-0.661781235981,-0.460363469479
3700000000.0,-0.674042877049,-0.455635362766,0.325316361878,-0.480513089582,0.325316361878,-0.480513089582,-0.674042877049,-0.455635362766
3800000000.0,-0.68575901928,-0.450759887706,0.313582156008,-0.476323245998,0.313582156008,-0.476323245998,-0.68575901928,-0.450759887706
3900000000.0,-0.696953544621,-0.445764179067,0.30236906347,-0.472014152716,0.30236906347,-0.472014152716,-0.696953544621,-0.445764179067
4000000000.0,-0.707649891047,-0.440672371393,0.291653643455,-0.467609965357,0.291653643455,-0.467609965357,-0.707649891047,-0.440672371393
4100000000.0,-0.717870926124,-0.435505884774,0.281413025511,-0.463132125063,0.281413025511,-0.463132125063,-0.717870926124,-0.435505884774
4200000000.0,-0.727638851885,-0.430283689112,0.271625004665,-0.458599622781,0.271625004665,-0.458599622781,-0.727638851885,-0.430283689112
4300000000.0,-0.736975135725,-0.425022547221,0.26226811053,-0.454029242361,0.26226811053,-0.454029242361,-0.736975135725,-0.425022547221
4400000000.0,-0.745900462767,-0.419737237436,0.253321654932,-0.449435783176,0.253321654932,-0.449435783176,-0.745900462767,-0.419737237436
4500000000.0,-0.754434705836,-0.414440756684,0.244765761943,-0.444832263196,0.244765761943,-0.444832263196,-0.754434705836,-0.414440756684
4600000000.0,-0.762596909704,-0.409144505135,0.236581383625,-0.440230103648,0.236581383625,-0.440230103648,-0.762596909704,-0.409144505135
4700000000.0,-0.770405286855,-0.40385845363,0.228750304275,-0.435639296447,0.228750304275,-0.435639296447,-0.770405286855,-0.40385845363
4800000000.0,-0.777877222386,-0.398591295129,0.221255135512,-0.431068555648,0.221255135512,-0.431068555648,-0.777877222386,-0.398591295129
4900000000.0,-0.785029286107,-0.393350581427,0.214079304182,-0.426525454176,0.214079304182,-0.426525454176,-0.785029286107,-0.393350581427
5000000000.0,-0.791877250194,-0.388142846355,0.207207034705,-0.422016547021,0.207207034705,-0.422016547021,-0.791877250194,-0.388142846355
5100000000.0,-0.798436111037,-0.382973716618,0.200623327223,-0.417547482086,0.200623327223,-0.417547482086,-0.798436111037,-0.382973716618
5200000000.0,-0.804720114172,-0.377848011391,0.194313932668,-0.413123099795,0.194313932668,-0.413123099795,-0.804720114172,-0.377848011391
5300000000.0,-0.81074278139,-0.37276983171,0.188265325652,-0.408747522477,0.188265325652,-0.408747522477,-0.81074278139,-0.37276983171
5400000000.0,-0.816516939255,-0.367742640609,0.182464675948,-0.404424234516,0.182464675948,-0.404424234516,-0.816516939255,-0.367742640609
5500000000.0,-0.822054748464,-0.362769334916,0.17689981913,-0.400156154152,0.17689981913,-0.400156154152,-0.822054748464,-0.362769334916
5600000000.0,-0.827367733529,-0.357852309512,0.171559226887,-0.395945697741,0.171559226887,-0.395945697741,-0.827367733529,-0.357852309512
5700000000.0,-0.832466812434,-0.352993514814,0.16643197737,-0.391794837245,0.16643197737,-0.391794837245,-0.832466812434,-0.352993514814
5800000000.0,-0.837362325936,-0.348194508153,0.161507725885,-0.387705151616,0.161507725885,-0.387705151616,-0.837362325936,-0.348194508153
5900000000.0,-0.842064066299,-0.343456499688,0.156776676163,-0.383677872714,0.156776676163,-0.383677872714,-0.842064066299,-0.343456499688
6000000000.0,-0.846581305273,-0.3387803934,0.152229552374,-0.379713926302,0.152229552374,-0.379713926302,-0.846581305273,-0.3387803934
6100000000.0,-0.850922821199,-0.334166823678,0.147857572025,-0.375813968646,0.147857572025,-0.375813968646,-0.850922821199,-0.334166823678
6200000000.0,-0.855096925135,-0.329616187969,0.143652419833,-0.371978419159,0.143652419833,-0.371978419159,-0.855096925135,-0.329616187969
6300000000.0,-0.859111485948,-0.325128675885,0.139606222631,-0.368207489521,0.139606222631,-0.368207489521,-0.859111485948,-0.325128675885
6400000000.0,-0.86297395434,-0.320704295156,0.135711525341,-0.364501209629,0.135711525341,-0.364501209629,-0.86297395434,-0.320704295156
6500000000.0,-0.866691385779,-0.316342894746,0.131961268041,-0.360859450725,0.131961268041,-0.360859450725,-0.866691385779,-0.316342894746
6600000000.0,-0.870270462343,-0.312044185446,0.128348764123,-0.357281945991,0.128348764123,-0.357281945991,-0.870270462343,-0.312044185446
6700000000.0,-0.873717513478,-0.307807758205,0.124867679528,-0.353768308881,0.124867679528,-0.353768308881,-0.873717513478,-0.307807758205
6800000000.0,-0.877038535703,-0.303633100437,0.121512013047,-0.350318049438,0.121512013047,-0.350318049438,-0.877038535703,-0.303633100437
6900000000.0,-0.880239211271,-0.299519610521,0.118276077655,-0.346930588796,0.118276077655,-0.346930588796,-0.880239211271,-0.299519610521
7000000000.0,-0.883324925838,-0.295466610694,0.115154482839,-0.343605272075,0.115154482839,-0.343605272075,-0.883324925838,-0.295466610694
7100000000.0,-0.886300785156,-0.291473358495,0.112142117909,-0.340341379837,0.112142117909,-0.340341379837,-0.886300785156,-0.291473358495
7200000000.0,-0.889171630845,-0.287539056927,0.109234136219,-0.337138138241,0.109234136219,-0.337138138241,-0.889171630845,-0.287539056927
7300000000.0,-0.891942055278,-0.283662863461,0.106425940285,-0.333994728064,0.106425940285,-0.333994728064,-0.891942055278,-0.283662863461
7400000000.0,-0.894616415612,-0.279843898026,0.103713167751,-0.330910292688,0.103713167751,-0.330910292688,-0.894616415612,-0.279843898026
7500000000.0,-0.89719884702,-0.27608125007,0.101091678155,-0.327883945165,0.101091678155,-0.327883945165,-0.89719884702,-0.27608125007
7600000000.0,-0.899693275159,-0.272373984809,0.098557540462,-0.324914774475,0.098557540462,-0.324914774475,-0.899693275159,-0.272373984809
7700000000.0,-0.902103427904,-0.26872114874,0.0961070213264,-0.322001851041,0.0961070213264,-0.322001851041,-0.902103427904,-0.26872114874
7800000000.0,-0.904432846404,-0.265121774511,0.0937365740338,-0.319144231603,0.0937365740338,-0.319144231603,-0.904432846404,-0.265121774511
7900000000.0,-0.906684895492,-0.261574885196,0.0914428280953,-0.316340963499,0.0914428280953,-0.316340963499,-0.906684895492,-0.261574885196
8000000000.0,-0.908862773469,-0.258079498063,0.089222579453,-0.313591088437,0.089222579453,-0.313591088437,-0.908862773469,-0.258079498063
8100000000.0,-0.910969521328,-0.25463462787,0.0870727812619,-0.310893645793,0.0870727812619,-0.310893645793,-0.910969521328,-0.25463462787
8200000000.0,-0.913008031423,-0.251239289751,0.0849905352161,-0.308247675509,0.0849905352161,-0.308247675509,-0.913008031423,-0.251239289751
8300000000.0,-0.914981055632,-0.247892501736,0.082973083386,-0.305652220607,0.082973083386,-0.305652220607,-0.914981055632,-0.247892501736
8400000000.0,-0.916891213033,-0.244593286935,0.0810178005376,-0.303106329387,0.0810178005376,-0.303106329387,-0.916891213033,-0.244593286935
8500000000.0,-0.918740997136,-0.241340675438,0.0791221869041,-0.300609057328,0.0791221869041,-0.300609057328,-0.918740997136,-0.241340675438
8600000000.0,-0.920532782676,-0.238133705951,0.0772838613834,-0.298159468726,0.0772838613834,-0.298159468726,-0.920532782676,-0.238133705951
8700000000.0,-0.922268832022,-0.234971427196,0.0755005551351,-0.295756638103,0.0755005551351,-0.295756638103,-0.922268832022,-0.234971427196
8800000000.0,-0.923951301201,-0.23185289911,0.0737701055532,-0.29339965141,0.0737701055532,-0.29339965141,-0.923951301201,-0.23185289911
8900000000.0,-0.925582245565,-0.228777193861,0.0720904505914,-0.291087607045,0.0720904505914,-0.291087607045,-0.925582245565,-0.228777193861
9000000000.0,-0.927163625139,-0.225743396693,0.07045962342,-0.288819616705,0.07045962342,-0.288819616705,-0.927163625139,-0.225743396693
9100000000.0,-0.928697309651,-0.222750606637,0.068875747393,-0.286594806102,0.068875747393,-0.286594806102,-0.928697309651,-0.222750606637
9200000000.0,-0.930185083267,-0.219797937085,0.0673370313076,-0.284412315541,0.0673370313076,-0.284412315541,-0.930185083267,-0.219797937085
9300000000.0,-0.931628649059,-0.216884516254,0.0658417649377,-0.282271300391,0.0658417649377,-0.282271300391,-0.931628649059,-0.216884516254
9400000000.0,-0.933029633211,-0.214009487551,0.0643883148242,-0.280170931449,0.0643883148242,-0.280170931449,-0.933029633211,-0.214009487551
9500000000.0,-0.934389588985,-0.211172009843,0.0629751203071,-0.278110395223,0.0629751203071,-0.278110395223,-0.934389588985,-0.211172009843
9600000000.0,-0.935710000462,-0.208371257656,0.0616006897839,-0.276088894132,0.0616006897839,-0.276088894132,-0.935710000462,-0.208371257656
9700000000.0,-0.936992286067,-0.205606421299,0.0602635971816,-0.274105646634,0.0602635971816,-0.274105646634,-0.936992286067,-0.205606421299
9800000000.0,-0.938237801894,-0.202876706932,0.0589624786273,-0.272159887301,0.0589624786273,-0.272159887301,-0.938237801894,-0.202876706932
9900000000.0,-0.939447844848,-0.200181336575,0.0576960293079,-0.270250866833,0.0576960293079,-0.270250866833,-0.939447844848,-0.200181336575
10000000000.0,-0.940623655606,-0.197519548076,0.0564630005045,-0.26837785203,0.0564630005045,-0.26837785203,-0.940623655606,-0.197519548076
