freq (GHz),S11_real,S11_imag,S21_real,S21_imag,S12_real,S12_imag,S22_real,S22_imag
100000000.0,0.00170903216535,0.000503673633365,0.998289371451,-0.00100731818919,0.998289371451,-0.00100731818919,0.00170903216535,0.000503673633365
200000000.0,0.00172168633174,0.00100731179917,0.998275867085,-0.00201460511075,0.998275867085,-0.00201460511075,0.00172168633174,0.00100731179917
300000000.0,0.00173233511685,0.00151092646149,0.998264114271,-0.00302187512705,0.998264114271,-0.00302187512705,0.00173233511685,0.00151092646149
400000000.0,0.0017424620484,0.00201452050112,0.998252629462,-0.00402913296665,0.998252629462,-0.00402913296665,0.0017424620484,0.00201452050112
500000000.0,0.00175263868355,0.00251809467449,0.99824084108,-0.00503638095635,0.99824084108,-0.00503638095635,0.00175263868355,0.00251809467449
600000000.0,0.0017631566139,0.00302164879514,0.99822845751,-0.00604362029849,0.99822845751,-0.00604362029849,0.0017631566139,0.00302164879514
700000000.0,0.0017741881434,0.00352518215959,0.998215306423,-0.00705085154565,0.998215306423,-0.00705085154565,0.0017741881434,0.00352518215959
800000000.0,0.00178584493535,0.00402869374549,0.998201276129,-0.00805807482814,0.998201276129,-0.00805807482814,0.00178584493535,0.00402869374549
900000000.0,0.00179820412689,0.00453218231829,0.998186289459,-0.00906528998,0.998186289459,-0.00906528998,0.00179820412689,0.00453218231829
1000000000.0,0.00181132156664,0.00503564649447,0.998170290535,-0.010072496616,0.998170290535,-0.010072496616,0.00181132156664,0.00503564649447
1100000000.0,0.00182523917384,0.00553908478191,0.998153237403,-0.0110796941816,0.998153237403,-0.0110796941816,0.00182523917384,0.00553908478191
1200000000.0,0.00183998932358,0.00604249560682,0.998135097654,-0.0120868819882,0.998135097654,-0.0120868819882,0.00183998932358,0.00604249560682
1300000000.0,0.00185559760599,0.00654587733255,0.998115845661,-0.0130940592375,0.998115845661,-0.0130940592375,0.00185559760599,0.00654587733255
1400000000.0,0.00187208463983,0.00704922827337,0.998095460767,-0.0141012250403,0.998095460767,-0.0141012250403,0.00187208463983,0.00704922827337
1500000000.0,0.0018894673084,0.00755254670437,0.99807392605,-0.0151083784304,0.99807392605,-0.0151083784304,0.0018894673084,0.00755254670437
1600000000.0,0.00190775962756,0.00805583086926,0.998051227452,-0.0161155183758,0.998051227452,-0.0161155183758,0.00190775962756,0.00805583086926
1700000000.0,0.00192697337133,0.00855907898631,0.998027353157,-0.0171226437874,0.998027353157,-0.0171226437874,0.00192697337134,0.00855907898631
1800000000.0,0.00194711853277,0.00906228925295,0.99800229313,-0.0181297535262,0.99800229313,-0.0181297535262,0.00194711853277,0.00906228925295
1900000000.0,0.00196820367019,0.0095654598496,0.997976038766,-0.0191368464087,0.997976038766,-0.0191368464087,0.00196820367019,0.0095654598496
2000000000.0,0.0019902361718,0.0100685889426,0.997948582631,-0.0201439212124,0.997948582631,-0.0201439212124,0.0019902361718,0.0100685889426
2100000000.0,0.00201322246079,0.0105716746867,0.997919918255,-0.0211509766794,0.997919918255,-0.0211509766794,0.00201322246079,0.0105716746867
2200000000.0,0.00203716815668,0.0110747152272,0.997890039971,-0.0221580115199,0.997890039971,-0.0221580115199,0.00203716815668,0.0110747152272
2300000000.0,0.00206207820368,0.0115777087014,0.997858942785,-0.0231650244155,0.997858942785,-0.0231650244155,0.00206207820368,0.0115777087014
2400000000.0,0.0020879569739,0.0120806532403,0.997826622275,-0.0241720140215,0.997826622275,-0.0241720140215,0.0020879569739,0.0120806532403
2500000000.0,0.00211480835121,0.0125835469698,0.997793074505,-0.0251789789689,0.997793074505,-0.0251789789689,0.00211480835121,0.0125835469698
2600000000.0,0.0021426358,0.0130863880113,0.997758295959,-0.0261859178671,0.997758295959,-0.0261859178671,0.0021426358,0.0130863880113
2700000000.0,0.00217144242201,0.0135891744831,0.997722283481,-0.0271928293048,0.997722283481,-0.0271928293048,0.00217144242201,0.0135891744831
2800000000.0,0.00220123100358,0.014091904501,0.997685034232,-0.028199711852,0.997685034232,-0.028199711852,0.00220123100358,0.014091904501
2900000000.0,0.00223200405543,0.0145945761786,0.997646545646,-0.0292065640613,0.997646545646,-0.0292065640613,0.00223200405543,0.0145945761786
3000000000.0,0.00226376384608,0.0150971876284,0.997606815398,-0.0302133844691,0.997606815398,-0.0302133844691,0.00226376384608,0.0150971876284
3100000000.0,0.0022965124303,0.015599736962,0.997565841377,-0.0312201715967,0.997565841377,-0.0312201715967,0.0022965124303,0.015599736962
3200000000.0,0.00233025167344,0.0161022222905,0.99752362166,-0.0322269239511,0.99752362166,-0.0322269239511,0.00233025167344,0.0161022222905
3300000000.0,0.00236498327223,0.016604641725,0.997480154492,-0.0332336400264,0.997480154492,-0.0332336400264,0.00236498327223,0.016604641725
3400000000.0,0.00240070877278,0.0171069933767,0.997435438269,-0.034240318304,0.997435438269,-0.034240318304,0.00240070877278,0.0171069933767
3500000000.0,0.00243742958617,0.0176092753576,0.997389471519,-0.0352469572538,0.997389471519,-0.0352469572538,0.00243742958617,0.0176092753576
3600000000.0,0.00247514700199,0.0181114857803,0.997342252893,-0.0362535553346,0.997342252893,-0.0362535553346,0.00247514700199,0.0181114857803
3700000000.0,0.0025138622002,0.0186136227587,0.99729378115,-0.0372601109951,0.99729378115,-0.0372601109951,0.0025138622002,0.0186136227587
3800000000.0,0.00255357626152,0.0191156844077,0.997244055147,-0.0382666226739,0.997244055147,-0.0382666226739,0.00255357626152,0.0191156844077
3900000000.0,0.00259429017657,0.0196176688438,0.997193073831,-0.0392730888007,0.997193073831,-0.0392730888007,0.00259429017657,0.0196176688438
4000000000.0,0.00263600485397,0.0201195741848,0.997140836231,-0.0402795077962,0.997140836231,-0.0402795077962,0.00263600485397,0.0201195741848
4100000000.0,0.00267872112746,0.0206213985505,0.99708734145,-0.041285878073,0.99708734145,-0.041285878073,0.00267872112746,0.0206213985505
4200000000.0,0.00272243976228,0.0211231400624,0.997032588658,-0.0422921980357,0.997032588658,-0.0422921980357,0.00272243976228,0.0211231400624
4300000000.0,0.00276716146086,0.0216247968441,0.996976577088,-0.0432984660816,0.996976577088,-0.0432984660816,0.00276716146086,0.0216247968441
4400000000.0,0.00281288686786,0.022126367021,0.99691930603,-0.0443046806007,0.99691930603,-0.0443046806007,0.00281288686786,0.022126367021
4500000000.0,0.00285961657473,0.0226278487208,0.996860774828,-0.0453108399764,0.996860774828,-0.0453108399764,0.00285961657473,0.0226278487208
4600000000.0,0.00290735112378,0.0231292400735,0.996800982872,-0.0463169425857,0.996800982872,-0.0463169425857,0.00290735112378,0.0231292400735
4700000000.0,0.00295609101186,0.0236305392112,0.996739929599,-0.0473229867993,0.996739929599,-0.0473229867993,0.00295609101186,0.0236305392112
4800000000.0,0.00300583669367,0.0241317442684,0.996677614488,-0.0483289709822,0.996677614488,-0.0483289709822,0.00300583669367,0.0241317442684
4900000000.0,0.00305658858478,0.024632853382,0.996614037054,-0.0493348934939,0.996614037054,-0.0493348934939,0.00305658858478,0.024632853382
5000000000.0,0.00310834706432,0.0251338646915,0.996549196851,-0.0503407526883,0.996549196851,-0.0503407526883,0.00310834706432,0.0251338646915
5100000000.0,0.00316111247747,0.0256347763386,0.996483093464,-0.0513465469145,0.996483093464,-0.0513465469145,0.00316111247747,0.0256347763386
5200000000.0,0.00321488513772,0.0261355864679,0.996415726512,-0.0523522745166,0.996415726512,-0.0523522745166,0.00321488513772,0.0261355864679
5300000000.0,0.0032696653289,0.0266362932262,0.996347095642,-0.053357933834,0.996347095642,-0.053357933834,0.0032696653289,0.0266362932262
5400000000.0,0.00332545330706,0.027136894763,0.996277200526,-0.0543635232018,0.996277200526,-0.0543635232018,0.00332545330706,0.027136894763
5500000000.0,0.00338224930216,0.0276373892306,0.996206040866,-0.0553690409508,0.996206040866,-0.0553690409508,0.00338224930216,0.0276373892306
5600000000.0,0.00344005351969,0.0281377747838,0.996133616385,-0.0563744854075,0.996133616385,-0.0563744854075,0.00344005351969,0.0281377747838
5700000000.0,0.00349886614208,0.02863804958,0.99605992683,-0.0573798548948,0.99605992683,-0.0573798548948,0.00349886614208,0.02863804958
5800000000.0,0.00355868733001,0.0291382117793,0.995984971969,-0.0583851477318,0.995984971969,-0.0583851477318,0.00355868733001,0.0291382117793
5900000000.0,0.00361951722367,0.0296382595446,0.995908751589,-0.0593903622337,0.995908751589,-0.0593903622337,0.00361951722367,0.0296382595446
6000000000.0,0.00368135594386,0.0301381910414,0.9958312655,-0.0603954967126,0.9958312655,-0.0603954967126,0.00368135594386,0.0301381910414
6100000000.0,0.00374420359302,0.0306380044379,0.995752513525,-0.0614005494771,0.995752513525,-0.0614005494771,0.00374420359302,0.0306380044379
6200000000.0,0.00380806025621,0.0311376979051,0.995672495507,-0.0624055188328,0.995672495507,-0.0624055188328,0.00380806025621,0.0311376979051
6300000000.0,0.00387292600201,0.0316372696165,0.995591211305,-0.063410403082,0.995591211305,-0.063410403082,0.00387292600201,0.0316372696165
6400000000.0,0.00393880088329,0.0321367177486,0.995508660793,-0.0644152005243,0.995508660793,-0.0644152005243,0.00393880088329,0.0321367177486
6500000000.0,0.00400568493804,0.0326360404805,0.995424843859,-0.0654199094563,0.995424843859,-0.0654199094563,0.00400568493804,0.0326360404805
6600000000.0,0.00407357819003,0.033135235994,0.995339760406,-0.0664245281721,0.995339760406,-0.0664245281721,0.00407357819003,0.033135235994
6700000000.0,0.00414248064952,0.0336343024737,0.995253410351,-0.067429054963,0.995253410351,-0.067429054963,0.00414248064952,0.0336343024737
6800000000.0,0.00421239231382,0.0341332381068,0.99516579362,-0.068433488118,0.99516579362,-0.068433488118,0.00421239231382,0.0341332381068
6900000000.0,0.00428331316791,0.0346320410832,0.995076910156,-0.0694378259236,0.995076910156,-0.0694378259236,0.00428331316791,0.0346320410832
7000000000.0,0.00435524318494,0.0351307095959,0.99498675991,-0.0704420666639,0.99498675991,-0.0704420666639,0.00435524318494,0.0351307095959
7100000000.0,0.00442818232676,0.03562924184,0.994895342847,-0.0714462086211,0.994895342847,-0.0714462086211,0.00442818232676,0.03562924184
7200000000.0,0.00450213054437,0.0361276360138,0.994802658938,-0.0724502500749,0.994802658938,-0.0724502500749,0.00450213054437,0.0361276360138
7300000000.0,0.00457708777837,0.0366258903182,0.99470870817,-0.0734541893032,0.99470870817,-0.0734541893032,0.00457708777837,0.0366258903182
7400000000.0,0.00465305395936,0.0371240029566,0.994613490536,-0.0744580245818,0.994613490536,-0.0744580245818,0.00465305395936,0.0371240029566
7500000000.0,0.00473002900832,0.0376219721352,0.99451700604,-0.0754617541848,0.99451700604,-0.0754617541848,0.00473002900832,0.0376219721352
7600000000.0,0.00480801283699,0.038119796063,0.994419254693,-0.0764653763843,0.994419254693,-0.0764653763843,0.00480801283699,0.038119796063
7700000000.0,0.00488700534819,0.0386174729515,0.994320236517,-0.0774688894507,0.994320236517,-0.0774688894507,0.00488700534819,0.0386174729515
7800000000.0,0.00496700643614,0.0391150010149,0.994219951543,-0.0784722916527,0.994219951543,-0.0784722916527,0.00496700643614,0.0391150010149
7900000000.0,0.0050480159868,0.0396123784703,0.994118399808,-0.0794755812576,0.994118399808,-0.0794755812576,0.0050480159868,0.0396123784703
8000000000.0,0.00513003387807,0.040109603537,0.994015581357,-0.0804787565308,0.994015581357,-0.0804787565308,0.00513003387807,0.040109603537
8100000000.0,0.00521305998016,0.0406066744372,0.993911496244,-0.0814818157366,0.993911496244,-0.0814818157366,0.00521305998016,0.0406066744372
8200000000.0,0.00529709415574,0.0411035893959,0.993806144529,-0.0824847571375,0.993806144529,-0.0824847571375,0.00529709415574,0.0411035893959
8300000000.0,0.00538213626026,0.0416003466403,0.993699526281,-0.0834875789948,0.993699526281,-0.0834875789948,0.00538213626026,0.0416003466403
8400000000.0,0.00546818614211,0.0420969444006,0.993591641575,-0.0844902795686,0.993591641575,-0.0844902795686,0.00546818614211,0.0420969444006
8500000000.0,0.0055552436429,0.0425933809093,0.993482490491,-0.0854928571176,0.993482490491,-0.0854928571176,0.0055552436429,0.0425933809093
8600000000.0,0.00564330859757,0.0430896544017,0.993372073117,-0.0864953098993,0.993372073117,-0.0864953098993,0.00564330859757,0.0430896544017
8700000000.0,0.00573238083468,0.0435857631155,0.993260389549,-0.0874976361699,0.993260389549,-0.0874976361699,0.00573238083468,0.0435857631155
8800000000.0,0.00582246017651,0.0440817052911,0.993147439887,-0.0884998341848,0.993147439887,-0.0884998341848,0.00582246017651,0.0440817052911
8900000000.0,0.00591354643927,0.0445774791715,0.993033224236,-0.0895019021982,0.993033224236,-0.0895019021982,0.00591354643927,0.0445774791715
9000000000.0,0.00600563943326,0.045073083002,0.99291774271,-0.090503838463,0.99291774271,-0.090503838463,0.00600563943326,0.045073083002
9100000000.0,0.006098738963,0.0455685150306,0.992800995426,-0.0915056412316,0.992800995426,-0.0915056412316,0.006098738963,0.0455685150306
9200000000.0,0.00619284482742,0.0460637735079,0.992682982509,-0.092507308755,0.992682982509,-0.092507308755,0.00619284482742,0.0460637735079
9300000000.0,0.00628795681993,0.0465588566868,0.992563704086,-0.0935088392837,0.992563704086,-0.0935088392837,0.00628795681993,0.0465588566868
9400000000.0,0.00638407472863,0.0470537628228,0.992443160293,-0.094510231067,0.992443160293,-0.094510231067,0.00638407472863,0.0470537628228
9500000000.0,0.00648119833638,0.047548490174,0.992321351269,-0.0955114823535,0.992321351269,-0.0955114823535,0.00648119833638,0.047548490174
9600000000.0,0.00657932742094,0.0480430370007,0.992198277158,-0.0965125913911,0.992198277158,-0.0965125913911,0.00657932742094,0.0480430370007
9700000000.0,0.00667846175509,0.0485374015659,0.992073938111,-0.0975135564269,0.992073938111,-0.0975135564269,0.00667846175509,0.0485374015659
9800000000.0,0.00677860110671,0.049031582135,0.99194833428,-0.0985143757072,0.99194833428,-0.0985143757072,0.00677860110671,0.049031582135
9900000000.0,0.00687974523892,0.0495255769757,0.991821465827,-0.0995150474777,0.991821465827,-0.0995150474777,0.00687974523892,0.0495255769757
10000000000.0,0.00698189391015,0.0500193843583,0.991693332914,-0.100515569983,0.991693332914,-0.100515569983,0.00698189391015,0.0500193843583
