freq (GHz),S11_real,S11_imag,S21_real,S21_imag,S12_real,S12_imag,S22_real,S22_imag
100000000.0,-3.53658726426e-06,-0.00169806668514,0.999993332222,-0.00171329195472,0.999993332222,-0.00171329195472,-3.53658726449e-06,-0.00169806668514
200000000.0,-1.39455774446e-05,-0.00339597028726,0.999982901533,-0.00342642516306,0.999982901533,-0.00342642516306,-1.39455774445e-05,-0.00339597028726
300000000.0,-3.01725316865e-05,-0.00509361973852,0.999966658045,-0.00513931073838,0.999966658045,-0.00513931073838,-3.01725316862e-05,-0.00509361973852
400000000.0,-5.22130202198e-05,-0.00679093922252,0.999944603497,-0.00685187449929,0.999944603497,-0.00685187449929,-5.22130202196e-05,-0.00679093922252
500000000.0,-8.00627653097e-05,-0.00848786109372,0.999916741132,-0.00856405014533,0.999916741132,-0.00856405014533,-8.00627653096e-05,-0.00848786109372
600000000.0,-0.000113717147647,-0.0101843232794,0.999883075046,-0.0102757767497,0.999883075046,-0.0102757767497,-0.000113717147647,-0.0101843232794
700000000.0,-0.000153171123672,-0.011880268024,0.999843609975,-0.0119869975505,0.999843609975,-0.0119869975505,-0.000153171123672,-0.011880268024
800000000.0,-0.000198419221442,-0.0135756410726,0.999798351192,-0.0136976591629,0.999798351192,-0.0136976591629,-0.000198419221442,-0.0135756410726
900000000.0,-0.000249455559589,-0.0152703911361,0.99974730444,-0.0154077110637,0.99974730444,-0.0154077110637,-0.000249455559589,-0.0152703911361
1000000000.0,-0.00030627387143,-0.0169644695102,0.999690475888,-0.0171171052242,0.999690475888,-0.0171171052242,-0.000306273871431,-0.0169644695102
1100000000.0,-0.000368867529878,-0.0186578297772,0.999627872089,-0.0188257958229,0.999627872089,-0.0188257958229,-0.000368867529878,-0.0186578297772
1200000000.0,-0.000437229572073,-0.0203504275659,0.999559499948,-0.0205337390141,0.999559499948,-0.0205337390141,-0.000437229572073,-0.0203504275659
1300000000.0,-0.000511352722277,-0.0220422203665,0.999485366698,-0.0222408927498,0.999485366698,-0.0222408927498,-0.000511352722277,-0.0220422203665
1400000000.0,-0.000591229412931,-0.023733167358,0.999405479868,-0.0239472166129,0.999405479868,-0.0239472166129,-0.000591229412931,-0.023733167358
1500000000.0,-0.000676851804516,-0.0254232292724,0.999319847269,-0.0256526716865,0.999319847269,-0.0256526716865,-0.000676851804516,-0.0254232292724
1600000000.0,-0.000768211803505,-0.0271123682723,0.999228476971,-0.0273572204361,0.999228476971,-0.0273572204361,-0.000768211803504,-0.0271123682723
1700000000.0,-0.000865301078846,-0.0288005478367,0.999131377282,-0.0290608265995,0.999131377282,-0.0290608265995,-0.000865301078846,-0.0288005478367
1800000000.0,-0.000968111077234,-0.0304877326667,0.99902855674,-0.0307634550958,0.99902855674,-0.0307634550958,-0.000968111077234,-0.0304877326667
1900000000.0,-0.00107663303684,-0.0321738885926,0.99892002409,-0.032465071936,0.99892002409,-0.032465071936,-0.00107663303684,-0.0321738885926
2000000000.0,-0.00119085800034,-0.0338589825015,0.998805788278,-0.034165644153,0.998805788278,-0.034165644153,-0.00119085800034,-0.0338589825015
2100000000.0,-0.00131077682584,-0.0355429822502,0.998685858433,-0.0358651397179,0.998685858433,-0.0358651397179,-0.00131077682584,-0.0355429822502
2200000000.0,-0.00143638019798,-0.0372258566072,0.998560243861,-0.037563527484,0.998560243861,-0.037563527484,-0.00143638019798,-0.0372258566072
2300000000.0,-0.00156765863714,-0.0389075751842,0.998428954034,-0.0392607771207,0.998428954034,-0.0392607771207,-0.00156765863714,-0.0389075751842
2400000000.0,-0.00170460250808,-0.0405881083777,0.998291998577,-0.0409568590574,0.998291998577,-0.0409568590574,-0.00170460250808,-0.0405881083777
2500000000.0,-0.00184720202808,-0.0422674273178,0.998149387267,-0.0426517444338,0.998149387267,-0.0426517444338,-0.00184720202808,-0.0422674273178
2600000000.0,-0.00199544727345,-0.0439455038112,0.998001130021,-0.0443454050452,0.998001130021,-0.0443454050452,-0.00199544727345,-0.0439455038112
2700000000.0,-0.00214932818653,-0.0456223103012,0.997847236892,-0.0460378133039,0.997847236892,-0.0460378133039,-0.00214932818653,-0.0456223103012
2800000000.0,-0.00230883458076,-0.0472978198161,0.99768771806,-0.0477289421896,0.99768771806,-0.0477289421896,-0.00230883458076,-0.0472978198161
2900000000.0,-0.00247395614625,-0.0489720059346,0.997522583831,-0.0494187652157,0.997522583831,-0.0494187652157,-0.00247395614625,-0.0489720059346
3000000000.0,-0.00264468245397,-0.0506448427419,0.997351844629,-0.0511072563872,0.997351844629,-0.0511072563872,-0.00264468245397,-0.0506448427419
3100000000.0,-0.00282100296002,-0.0523163047977,0.997175510995,-0.0527943901699,0.997175510995,-0.0527943901699,-0.00282100296002,-0.0523163047977
3200000000.0,-0.00300290700917,-0.0539863671016,0.99699359358,-0.054480141457,0.99699359358,-0.054480141457,-0.00300290700917,-0.0539863671016
3300000000.0,-0.00319038383754,-0.055655005058,0.996806103145,-0.0561644855351,0.996806103145,-0.0561644855351,-0.00319038383754,-0.055655005058
3400000000.0,-0.00338342257612,-0.0573221944544,0.996613050555,-0.0578473980635,0.996613050555,-0.0578473980635,-0.00338342257612,-0.0573221944544
3500000000.0,-0.00358201225242,-0.0589879114274,0.99641444678,-0.0595288550414,0.99641444678,-0.0595288550414,-0.00358201225242,-0.0589879114274
3600000000.0,-0.00378614179282,-0.0606521324399,0.996210302891,-0.061208832786,0.996210302891,-0.061208832786,-0.00378614179282,-0.0606521324399
3700000000.0,-0.00399580002409,-0.0623148342561,0.996000630059,-0.0628873079079,0.996000630059,-0.0628873079079,-0.00399580002409,-0.0623148342561
3800000000.0,-0.00421097567516,-0.0639759939219,0.995785439553,-0.0645642572931,0.995785439553,-0.0645642572931,-0.00421097567516,-0.0639759939219
3900000000.0,-0.00443165737834,-0.0656355887444,0.995564742738,-0.0662396580824,0.995564742738,-0.0662396580824,-0.00443165737834,-0.0656355887444
4000000000.0,-0.00465783366976,-0.0672935962682,0.995338551075,-0.067913487649,0.995338551075,-0.067913487649,-0.00465783366976,-0.0672935962682
4100000000.0,-0.00488949299077,-0.0689499942628,0.995106876123,-0.0695857235864,0.995106876123,-0.0695857235864,-0.00488949299077,-0.0689499942628
4200000000.0,-0.00512662368819,-0.0706047607035,0.994869729532,-0.0712563436899,0.994869729532,-0.0712563436899,-0.00512662368819,-0.0706047607035
4300000000.0,-0.00536921401505,-0.0722578737581,0.994627123048,-0.0729253259437,0.994627123048,-0.0729253259437,-0.00536921401505,-0.0722578737581
4400000000.0,-0.00561725213057,-0.0739093117707,0.994379068509,-0.0745926485054,0.994379068509,-0.0745926485054,-0.00561725213057,-0.0739093117707
4500000000.0,-0.00587072610051,-0.07555905325,0.994125577848,-0.0762582896949,0.994125577848,-0.0762582896949,-0.00587072610051,-0.07555905325
4600000000.0,-0.00612962389725,-0.0772070768569,0.993866663093,-0.0779222279821,0.993866663093,-0.0779222279821,-0.00612962389725,-0.0772070768569
4700000000.0,-0.00639393339991,-0.0788533613952,0.993602336362,-0.0795844419782,0.993602336362,-0.0795844419782,-0.00639393339991,-0.0788533613952
4800000000.0,-0.00666364239373,-0.0804978857977,0.993332609868,-0.0812449104225,0.993332609868,-0.0812449104225,-0.00666364239373,-0.0804978857977
4900000000.0,-0.00693873857039,-0.08214062912,0.99305749592,-0.0829036121759,0.99305749592,-0.0829036121759,-0.00693873857039,-0.08214062912
5000000000.0,-0.00721920952753,-0.0837815705311,0.992777006917,-0.0845605262125,0.992777006917,-0.0845605262125,-0.00721920952753,-0.0837815705311
5100000000.0,-0.00750504276874,-0.0854206893068,0.992491155357,-0.0862156316127,0.992491155357,-0.0862156316127,-0.00750504276874,-0.0854206893068
5200000000.0,-0.00779622570268,-0.0870579648197,0.992199953828,-0.0878689075539,0.992199953828,-0.0878689075539,-0.00779622570268,-0.0870579648197
5300000000.0,-0.0080927456431,-0.088693376535,0.991903415016,-0.0895203333068,0.991903415016,-0.0895203333068,-0.0080927456431,-0.088693376535
5400000000.0,-0.00839458980845,-0.0903269040047,0.991601551702,-0.0911698882288,0.991601551702,-0.0911698882288,-0.00839458980845,-0.0903269040047
5500000000.0,-0.00870174532144,-0.0919585268624,0.991294376763,-0.0928175517601,0.991294376763,-0.0928175517601,-0.00870174532144,-0.0919585268624
5600000000.0,-0.0090141992083,-0.0935882248164,0.99098190317,-0.0944633034168,0.99098190317,-0.0944633034168,-0.0090141992083,-0.0935882248164
5700000000.0,-0.00933193839882,-0.0952159776487,0.990664143994,-0.0961071227892,0.990664143994,-0.0961071227892,-0.00933193839882,-0.0952159776487
5800000000.0,-0.00965494972561,-0.0968417652092,0.990341112402,-0.0977489895374,0.990341112402,-0.0977489895374,-0.00965494972561,-0.0968417652092
5900000000.0,-0.00998321992359,-0.0984655674119,0.990012821657,-0.099388883387,0.990012821657,-0.099388883387,-0.00998321992359,-0.0984655674119
6000000000.0,-0.0103167356299,-0.100087364234,0.989679285123,-0.101026784129,0.989679285123,-0.101026784129,-0.0103167356299,-0.100087364234
6100000000.0,-0.0106554833834,-0.101707135713,0.989340516258,-0.102662671614,0.989340516258,-0.102662671614,-0.0106554833834,-0.101707135713
6200000000.0,-0.0109994496236,-0.103324861942,0.988996528624,-0.104296525752,0.988996528624,-0.104296525752,-0.0109994496236,-0.103324861942
6300000000.0,-0.0113486206916,-0.104940523071,0.988647335878,-0.105928326514,0.988647335878,-0.105928326514,-0.0113486206916,-0.104940523071
6400000000.0,-0.0117029828284,-0.106554099302,0.98829295178,-0.107558053921,0.98829295178,-0.107558053921,-0.0117029828284,-0.106554099302
6500000000.0,-0.0120625221754,-0.108165570893,0.987933390186,-0.109185688054,0.987933390186,-0.109185688054,-0.0120625221754,-0.108165570893
6600000000.0,-0.0124272247735,-0.109774918151,0.987568665056,-0.110811209044,0.987568665056,-0.110811209044,-0.0124272247735,-0.109774918151
6700000000.0,-0.0127970765636,-0.111382121435,0.987198790449,-0.112434597079,0.987198790449,-0.112434597079,-0.0127970765636,-0.111382121435
6800000000.0,-0.0131720633853,-0.112987161154,0.986823780523,-0.114055832396,0.986823780523,-0.114055832396,-0.0131720633853,-0.112987161154
6900000000.0,-0.0135521709776,-0.114590017767,0.986443649541,-0.115674895287,0.986443649541,-0.115674895287,-0.0135521709776,-0.114590017767
7000000000.0,-0.0139373849782,-0.116190671782,0.986058411863,-0.117291766093,0.986058411863,-0.117291766093,-0.0139373849782,-0.116190671782
7100000000.0,-0.0143276909233,-0.117789103759,0.985668081953,-0.118906425211,0.985668081953,-0.118906425211,-0.0143276909233,-0.117789103759
7200000000.0,-0.0147230742476,-0.119385294305,0.985272674376,-0.120518853088,0.985272674376,-0.120518853088,-0.0147230742476,-0.119385294305
7300000000.0,-0.0151235202844,-0.120979224081,0.984872203799,-0.122129030225,0.984872203799,-0.122129030225,-0.0151235202844,-0.120979224081
7400000000.0,-0.0155290142652,-0.122570873795,0.984466684989,-0.123736937174,0.984466684989,-0.123736937174,-0.0155290142652,-0.122570873795
7500000000.0,-0.0159395413195,-0.124160224208,0.984056132816,-0.125342554544,0.984056132816,-0.125342554544,-0.0159395413195,-0.124160224208
7600000000.0,-0.0163550864753,-0.125747256135,0.983640562253,-0.126945862995,0.983640562253,-0.126945862995,-0.0163550864753,-0.125747256135
7700000000.0,-0.0167756346588,-0.127331950439,0.983219988373,-0.128546843246,0.983219988373,-0.128546843246,-0.0167756346588,-0.127331950439
7800000000.0,-0.0172011706946,-0.128914288043,0.98279442635,-0.130145476071,0.98279442635,-0.130145476071,-0.0172011706946,-0.128914288043
7900000000.0,-0.0176316793055,-0.13049424992,0.982363891462,-0.131741742298,0.982363891462,-0.131741742298,-0.0176316793055,-0.13049424992
8000000000.0,-0.0180671451131,-0.132071817099,0.981928399088,-0.133335622818,0.981928399088,-0.133335622818,-0.0180671451131,-0.132071817099
8100000000.0,-0.0185075526373,-0.133646970669,0.981487964705,-0.134927098578,0.981487964705,-0.134927098578,-0.0185075526373,-0.133646970669
8200000000.0,-0.0189528862972,-0.135219691775,0.981042603897,-0.136516150587,0.981042603897,-0.136516150587,-0.0189528862972,-0.135219691775
8300000000.0,-0.019403130411,-0.13678996162,0.980592332343,-0.138102759915,0.980592332343,-0.138102759915,-0.019403130411,-0.13678996162
8400000000.0,-0.0198582691958,-0.138357761471,0.980137165827,-0.139686907695,0.980137165827,-0.139686907695,-0.0198582691958,-0.138357761471
8500000000.0,-0.0203182867688,-0.139923072653,0.979677120231,-0.141268575126,0.979677120231,-0.141268575126,-0.0203182867688,-0.139923072653
8600000000.0,-0.0207831671468,-0.141485876558,0.979212211538,-0.14284774347,0.979212211538,-0.14284774347,-0.0207831671468,-0.141485876558
8700000000.0,-0.0212528942471,-0.14304615464,0.978742455831,-0.144424394056,0.978742455831,-0.144424394056,-0.0212528942471,-0.14304615464
8800000000.0,-0.0217274518875,-0.14460388842,0.978267869292,-0.145998508285,0.978267869292,-0.145998508285,-0.0217274518875,-0.14460388842
8900000000.0,-0.0222068237868,-0.146159059488,0.977788468201,-0.147570067624,0.977788468201,-0.147570067624,-0.0222068237868,-0.146159059488
9000000000.0,-0.0226909935654,-0.147711649501,0.977304268939,-0.149139053614,0.977304268939,-0.149139053614,-0.0226909935654,-0.147711649501
9100000000.0,-0.0231799447455,-0.149261640186,0.976815287982,-0.150705447865,0.976815287982,-0.150705447865,-0.0231799447455,-0.149261640186
9200000000.0,-0.0236736607517,-0.150809013345,0.976321541906,-0.152269232064,0.976321541906,-0.152269232064,-0.0236736607517,-0.150809013345
9300000000.0,-0.0241721249117,-0.15235375085,0.975823047384,-0.153830387975,0.975823047384,-0.153830387975,-0.0241721249117,-0.15235375085
9400000000.0,-0.0246753204564,-0.153895834651,0.975319821183,-0.155388897436,0.975319821183,-0.155388897436,-0.0246753204564,-0.153895834651
9500000000.0,-0.0251832305208,-0.155435246773,0.974811880169,-0.156944742364,0.974811880169,-0.156944742364,-0.0251832305208,-0.155435246773
9600000000.0,-0.0256958381446,-0.156971969318,0.974299241303,-0.158497904758,0.974299241303,-0.158497904758,-0.0256958381446,-0.156971969318
9700000000.0,-0.0262131262727,-0.158505984471,0.973781921639,-0.160048366697,0.973781921639,-0.160048366697,-0.0262131262727,-0.158505984471
9800000000.0,-0.0267350777556,-0.160037274493,0.973259938325,-0.161596110344,0.973259938325,-0.161596110344,-0.0267350777556,-0.160037274493
9900000000.0,-0.0272616753507,-0.161565821732,0.972733308606,-0.163141117945,0.972733308606,-0.163141117945,-0.0272616753507,-0.161565821732
10000000000.0,-0.0277929017222,-0.163091608619,0.972202049817,-0.164683371834,0.972202049817,-0.164683371834,-0.0277929017222,-0.163091608619
