freq (GHz),S11_real,S11_imag,S21_real,S21_imag,S12_real,S12_imag,S22_real,S22_imag
100000000.0,0.0150253216345,0.00275450402945,0.984970910794,-0.00434487583454,0.984970910794,-0.00434487583454,0.0150253216345,0.00275450402945
200000000.0,0.0151592010543,0.0055073511224,0.984831721361,-0.0086881179098,0.984831721361,-0.0086881179098,0.0151592010543,0.0055073511224
300000000.0,0.0152911000529,0.00825886073381,0.984691969502,-0.0130300615395,0.984691969502,-0.0130300615395,0.0152911000529,0.00825886073381
400000000.0,0.0154338882427,0.0110089790761,0.984538785146,-0.0173706658532,0.984538785146,-0.0173706658532,0.0154338882427,0.0110089790761
500000000.0,0.0155925168556,0.0137575656508,0.984367216535,-0.0217098017783,0.984367216535,-0.0217098017783,0.0155925168556,0.0137575656508
600000000.0,0.0157695033188,0.0165044417212,0.984174745648,-0.0260473010231,0.984174745648,-0.0260473010231,0.0157695033188,0.0165044417212
700000000.0,0.0159663259934,0.0192494077586,0.98395989346,-0.030382973784,0.98395989346,-0.030382973784,0.0159663259934,0.0192494077586
800000000.0,0.0161839333581,0.0219922515611,0.983721710762,-0.0347166170202,0.983721710762,-0.0347166170202,0.0161839333581,0.0219922515611
900000000.0,0.0164229707828,0.0247327526366,0.983459551388,-0.0390480189399,0.983459551388,-0.0390480189399,0.0164229707828,0.0247327526366
1000000000.0,0.0166838955025,0.0274706848167,0.983172957239,-0.0433769616874,0.983172957239,-0.0433769616874,0.0166838955025,0.0274706848167
1100000000.0,0.0169670405457,0.0302058179341,0.982861594363,-0.0477032230738,0.982861594363,-0.0477032230738,0.0169670405457,0.0302058179341
1200000000.0,0.0172726528371,0.0329379189613,0.982525214845,-0.0520265777572,0.982525214845,-0.0520265777572,0.0172726528371,0.0329379189613
1300000000.0,0.0176009171771,0.0356667528199,0.982163632837,-0.0563467980843,0.982163632837,-0.0563467980843,0.0176009171771,0.0356667528199
1400000000.0,0.0179519720099,0.038392082978,0.981776708785,-0.0606636547138,0.981776708785,-0.0606636547138,0.0179519720099,0.038392082978
1500000000.0,0.0183259201737,0.0411136719054,0.981364338681,-0.0649769170937,0.981364338681,-0.0649769170937,0.0183259201737,0.0411136719054
1600000000.0,0.0187228364557,0.0438312814315,0.980926446511,-0.0692863538367,0.980926446511,-0.0692863538367,0.0187228364557,0.0438312814315
1700000000.0,0.0191427730423,0.0465446730327,0.980462978805,-0.0735917330229,0.980462978805,-0.0735917330229,0.0191427730423,0.0465446730327
1800000000.0,0.0195857635386,0.0492536080686,0.979973900617,-0.0778928224493,0.979973900617,-0.0778928224493,0.0195857635386,0.0492536080686
1900000000.0,0.020051825994,0.0519578479808,0.9794591925,-0.0821893898396,0.9794591925,-0.0821893898396,0.020051825994,0.0519578479808
2000000000.0,0.020540965218,0.0546571544621,0.978918848193,-0.0864812030239,0.978918848193,-0.0864812030239,0.020540965218,0.0546571544621
2100000000.0,0.0210531745811,0.0573512896037,0.978352872821,-0.0907680300937,0.978352872821,-0.0907680300937,0.0210531745811,0.0573512896037
2200000000.0,0.0215884374363,0.060040016025,0.97776128147,-0.0950496395404,0.97776128147,-0.0950496395404,0.0215884374363,0.060040016025
2300000000.0,0.022146728254,0.0627230969886,0.977144098058,-0.0993258003766,0.977144098058,-0.0993258003766,0.022146728254,0.0627230969886
2400000000.0,0.0227280135407,0.0654002965051,0.976501354413,-0.103596282247,0.976501354413,-0.103596282247,0.0227280135407,0.0654002965051
2500000000.0,0.0233322525896,0.068071379428,0.975833089526,-0.107860855531,0.975833089526,-0.107860855531,0.0233322525896,0.068071379428
2600000000.0,0.0239593981007,0.0707361115408,0.975139348929,-0.112119291429,0.975139348929,-0.112119291429,0.0239593981007,0.0707361115408
2700000000.0,0.024609396699,0.0733942596382,0.974420184177,-0.116371362058,0.974420184177,-0.116371362058,0.024609396699,0.0733942596382
2800000000.0,0.0252821893698,0.0760455916014,0.973675652417,-0.12061684052,0.973675652417,-0.12061684052,0.0252821893698,0.0760455916014
2900000000.0,0.0259777118296,0.0786898764695,0.972905816014,-0.124855500987,0.972905816014,-0.124855500987,0.0259777118296,0.0786898764695
3000000000.0,0.0266958948436,0.0813268845056,0.972110742234,-0.129087118764,0.972110742234,-0.129087118764,0.0266958948436,0.0813268845056
3100000000.0,0.0274366644997,0.0839563872613,0.971290502973,-0.133311470361,0.971290502973,-0.133311470361,0.0274366644997,0.0839563872613
3200000000.0,0.0281999424483,0.086578157636,0.970445174515,-0.137528333552,0.970445174515,-0.137528333552,0.0281999424483,0.086578157636
3300000000.0,0.0289856461117,0.0891919699351,0.969574837325,-0.141737487439,0.969574837325,-0.141737487439,0.0289856461117,0.0891919699351
3400000000.0,0.0297936888706,0.0917975999252,0.968679575859,-0.14593871251,0.968679575859,-0.14593871251,0.0297936888706,0.0917975999252
3500000000.0,0.0306239802292,0.0943948248864,0.967759478407,-0.150131790689,0.967759478407,-0.150131790689,0.0306239802292,0.0943948248864
3600000000.0,0.031476425965,0.0969834236641,0.966814636934,-0.154316505397,0.966814636934,-0.154316505397,0.031476425965,0.0969834236641
3700000000.0,0.0323509282628,0.0995631767173,0.965845146955,-0.158492641598,0.965845146955,-0.158492641598,0.0323509282628,0.0995631767173
3800000000.0,0.0332473858381,0.102133866166,0.964851107404,-0.162659985848,0.964851107404,-0.162659985848,0.0332473858381,0.102133866166
3900000000.0,0.0341656940493,0.104695275838,0.96383262053,-0.166818326347,0.96383262053,-0.166818326347,0.0341656940493,0.104695275838
4000000000.0,0.0351057450021,0.10724719131,0.962789791786,-0.170967452981,0.962789791786,-0.170967452981,0.0351057450021,0.10724719131
4100000000.0,0.0360674276459,0.109789399954,0.961722729738,-0.175107157369,0.961722729738,-0.175107157369,0.0360674276459,0.109789399954
4200000000.0,0.0370506278646,0.112321690977,0.960631545971,-0.179237232902,0.960631545971,-0.179237232902,0.0370506278646,0.112321690977
4300000000.0,0.0380552285607,0.114843855459,0.959516355006,-0.183357474789,0.959516355006,-0.183357474789,0.0380552285607,0.114843855459
4400000000.0,0.0390811097367,0.117355686396,0.958377274222,-0.187467680097,0.958377274222,-0.187467680097,0.0390811097367,0.117355686396
4500000000.0,0.0401281485702,0.119856978733,0.957214423776,-0.191567647784,0.957214423776,-0.191567647784,0.0401281485702,0.119856978733
4600000000.0,0.0411962194875,0.122347529404,0.956027926532,-0.195657178746,0.956027926532,-0.195657178746,0.0411962194875,0.122347529404
4700000000.0,0.0422851942329,0.124827137365,0.954817907994,-0.199736075844,0.954817907994,-0.199736075844,0.0422851942329,0.124827137365
4800000000.0,0.0433949419361,0.127295603628,0.953584496235,-0.203804143947,0.953584496235,-0.203804143947,0.0433949419361,0.127295603628
4900000000.0,0.0445253291767,0.129752731295,0.952327821837,-0.207861189959,0.952327821837,-0.207861189959,0.0445253291767,0.129752731295
5000000000.0,0.0456762200474,0.132198325589,0.951048017823,-0.211907022859,0.951048017823,-0.211907022859,0.0456762200474,0.132198325589
5100000000.0,0.0468474762146,0.134632193885,0.9497452196,-0.215941453727,0.9497452196,-0.215941453727,0.0468474762146,0.134632193885
5200000000.0,0.0480389569787,0.137054145739,0.948419564898,-0.219964295778,0.948419564898,-0.219964295778,0.0480389569787,0.137054145739
5300000000.0,0.0492505193316,0.139463992918,0.947071193714,-0.223975364391,0.947071193714,-0.223975364391,0.0492505193316,0.139463992918
5400000000.0,0.0504820180139,0.141861549428,0.945700248253,-0.227974477135,0.945700248253,-0.227974477135,0.0504820180139,0.141861549428
5500000000.0,0.0517333055712,0.144246631538,0.944306872871,-0.231961453803,0.944306872871,-0.231961453803,0.0517333055712,0.144246631538
5600000000.0,0.0530042324091,0.146619057807,0.942891214025,-0.235936116429,0.942891214025,-0.235936116429,0.0530042324091,0.146619057807
5700000000.0,0.0542946468468,0.14897864911,0.941453420212,-0.239898289323,0.941453420212,-0.239898289323,0.0542946468468,0.14897864911
5800000000.0,0.0556043951717,0.15132522866,0.939993641923,-0.243847799087,0.939993641923,-0.243847799087,0.0556043951717,0.15132522866
5900000000.0,0.0569333216913,0.15365862203,0.938512031584,-0.247784474647,0.938512031584,-0.247784474647,0.0569333216913,0.15365862203
6000000000.0,0.058281268786,0.155978657177,0.937008743509,-0.251708147267,0.937008743509,-0.251708147267,0.058281268786,0.155978657177
6100000000.0,0.0596480769605,0.158285164461,0.935483933843,-0.255618650575,0.935483933843,-0.255618650575,0.0596480769605,0.158285164461
6200000000.0,0.0610335848953,0.160577976666,0.933937760518,-0.259515820585,0.933937760518,-0.259515820585,0.0610335848953,0.160577976666
6300000000.0,0.0624376294975,0.162856929016,0.932370383193,-0.26339949571,0.932370383193,-0.26339949571,0.0624376294975,0.162856929016
6400000000.0,0.0638600459509,0.165121859198,0.930781963214,-0.26726951679,0.930781963214,-0.26726951679,0.0638600459509,0.165121859198
6500000000.0,0.0653006677663,0.167372607372,0.929172663554,-0.271125727099,0.929172663554,-0.271125727099,0.0653006677663,0.167372607372
6600000000.0,0.0667593268312,0.169609016193,0.927542648773,-0.27496797237,0.927542648773,-0.27496797237,0.0667593268312,0.169609016193
6700000000.0,0.0682358534588,0.171830930825,0.925892084962,-0.278796100805,0.925892084962,-0.278796100805,0.0682358534588,0.171830930825
6800000000.0,0.0697300764372,0.174038198952,0.924221139695,-0.282609963095,0.924221139695,-0.282609963095,0.0697300764372,0.174038198952
6900000000.0,0.0712418230784,0.176230670794,0.922529981984,-0.286409412429,0.922529981984,-0.286409412429,0.0712418230784,0.176230670794
7000000000.0,0.072770919266,0.178408199119,0.920818782228,-0.290194304508,0.920818782228,-0.290194304508,0.072770919266,0.178408199119
7100000000.0,0.074317189504,0.180570639253,0.919087712163,-0.29396449756,0.919087712163,-0.29396449756,0.074317189504,0.180570639253
7200000000.0,0.0758804569643,0.182717849094,0.917336944818,-0.297719852346,0.917336944818,-0.297719852346,0.0758804569643,0.182717849094
7300000000.0,0.0774605435345,0.184849689115,0.915566654468,-0.301460232175,0.915566654468,-0.301460232175,0.0774605435345,0.184849689115
7400000000.0,0.0790572698648,0.186966022383,0.913777016581,-0.305185502909,0.913777016581,-0.305185502909,0.0790572698648,0.186966022383
7500000000.0,0.0806704554156,0.189066714555,0.911968207778,-0.308895532976,0.911968207778,-0.308895532976,0.0806704554156,0.189066714555
7600000000.0,0.0822999185036,0.191151633897,0.91014040578,-0.312590193373,0.91014040578,-0.312590193373,0.0822999185036,0.191151633897
7700000000.0,0.0839454763487,0.193220651279,0.908293789368,-0.316269357675,0.908293789368,-0.316269357675,0.0839454763487,0.193220651279
7800000000.0,0.0856069451203,0.195273640189,0.90642853833,-0.31993290204,0.90642853833,-0.31993290204,0.0856069451203,0.195273640189
7900000000.0,0.0872841399828,0.197310476734,0.904544833423,-0.323580705215,0.904544833423,-0.323580705215,0.0872841399828,0.197310476734
8000000000.0,0.0889768751414,0.199331039642,0.902642856318,-0.327212648538,0.902642856318,-0.327212648538,0.0889768751414,0.199331039642
8100000000.0,0.0906849638875,0.20133521027,0.900722789564,-0.330828615944,0.900722789564,-0.330828615944,0.0906849638875,0.20133521027
8200000000.0,0.0924082186436,0.203322872601,0.898784816537,-0.334428493965,0.898784816537,-0.334428493965,0.0924082186436,0.203322872601
8300000000.0,0.0941464510083,0.205293913247,0.896829121398,-0.338012171734,0.896829121398,-0.338012171734,0.0941464510083,0.205293913247
8400000000.0,0.0958994718002,0.20724822145,0.894855889045,-0.341579540982,0.894855889045,-0.341579540982,0.0958994718002,0.20724822145
8500000000.0,0.0976670911025,0.209185689084,0.892865305075,-0.345130496042,0.892865305075,-0.345130496042,0.0976670911025,0.209185689084
8600000000.0,0.0994491183064,0.211106210647,0.890857555736,-0.348664933847,0.890857555736,-0.348664933847,0.0994491183064,0.211106210647
8700000000.0,0.101245362155,0.213009683269,0.888832827884,-0.352182753928,0.888832827884,-0.352182753928,0.101245362155,0.213009683269
8800000000.0,0.103055630785,0.214896006699,0.88679130894,-0.355683858411,0.88679130894,-0.355683858411,0.103055630785,0.214896006699
8900000000.0,0.104879731771,0.21676508331,0.884733186849,-0.359168152017,0.884733186849,-0.359168152017,0.104879731771,0.21676508331
9000000000.0,0.106717472169,0.218616818092,0.882658650036,-0.362635542054,0.882658650036,-0.362635542054,0.106717472169,0.218616818092
9100000000.0,0.108568658554,0.220451118646,0.880567887364,-0.366085938416,0.880567887364,-0.366085938416,0.108568658554,0.220451118646
9200000000.0,0.110433097065,0.22226789518,0.878461088092,-0.369519253577,0.878461088092,-0.369519253577,0.110433097065,0.22226789518
9300000000.0,0.112310593447,0.224067060502,0.876338441837,-0.372935402583,0.876338441837,-0.372935402583,0.112310593447,0.224067060502
9400000000.0,0.114200953088,0.225848530016,0.874200138529,-0.376334303048,0.874200138529,-0.376334303048,0.114200953088,0.225848530016
9500000000.0,0.116103981065,0.227612221711,0.872046368373,-0.379715875147,0.872046368373,-0.379715875147,0.116103981065,0.227612221711
9600000000.0,0.118019482178,0.229358056153,0.869877321807,-0.383080041606,0.869877321807,-0.383080041606,0.118019482178,0.229358056153
9700000000.0,0.119947260993,0.231085956481,0.867693189465,-0.386426727694,0.867693189465,-0.386426727694,0.119947260993,0.231085956481
9800000000.0,0.121887121881,0.232795848389,0.865494162135,-0.389755861215,0.865494162135,-0.389755861215,0.121887121881,0.232795848389
9900000000.0,0.123838869058,0.234487660127,0.863280430725,-0.393067372498,0.863280430725,-0.393067372498,0.123838869058,0.234487660127
10000000000.0,0.125802306618,0.23616132248,0.861052186216,-0.396361194384,0.861052186216,-0.396361194384,0.125802306618,0.23616132248
