freq (GHz),S11_real,S11_imag,S21_real,S21_imag,S12_real,S12_imag,S22_real,S22_imag
100000000.0,0.00248718809159,0.000711126845039,0.997511351195,-0.00111903905167,0.997511351195,-0.00111903905167,0.00248718809159,0.000711126845039
200000000.0,0.00250589066974,0.00142219166942,0.99749202136,-0.00223802058764,0.99749202136,-0.00223802058764,0.00250589066974,0.00142219166942
300000000.0,0.0025217877747,0.00213321583434,0.997475330442,-0.00335696845815,0.997475330442,-0.00335696845815,0.0025217877747,0.00213321583434
400000000.0,0.00253703779961,0.00284420458316,0.997459120034,-0.00447588983116,0.997459120034,-0.00447588983116,0.00253703779961,0.00284420458316
500000000.0,0.00255247257034,0.00355515936323,0.997442558289,-0.00559478779252,0.997442558289,-0.00559478779252,0.00255247257034,0.00355515936323
600000000.0,0.00256851658862,0.00426607992749,0.997425220689,-0.00671366354614,0.997425220689,-0.00671366354614,0.00256851658862,0.00426607992749
700000000.0,0.00258542076997,0.00497696509527,0.997406856294,-0.00783251722412,0.997406856294,-0.00783251722412,0.00258542076997,0.00497696509527
800000000.0,0.0026033477689,0.00568781310693,0.997387302428,-0.00895134827226,0.997387302428,-0.00895134827226,0.0026033477689,0.00568781310693
900000000.0,0.0026224099776,0.00639862181599,0.997366446674,-0.0100701556614,0.997366446674,-0.0100701556614,0.0026224099776,0.00639862181599
1000000000.0,0.00264268879034,0.00710938880311,0.997344207611,-0.0111889380157,0.997344207611,-0.0111889380157,0.00264268879034,0.00710938880311
1100000000.0,0.00266424531432,0.00782011144912,0.997320524105,-0.0123076936961,0.997320524105,-0.0123076936961,0.00266424531432,0.00782011144912
1200000000.0,0.00268712675307,0.00853078698397,0.997295348922,-0.0134264208569,0.997295348922,-0.0134264208569,0.00268712675307,0.00853078698397
1300000000.0,0.00271137042327,0.0092414125211,0.997268644716,-0.0145451174865,0.997268644716,-0.0145451174865,0.00271137042327,0.0092414125211
1400000000.0,0.00273700639541,0.00995198508241,0.997240381385,-0.0156637814375,0.997240381385,-0.0156637814375,0.00273700639541,0.00995198508241
1500000000.0,0.00276405929352,0.0106625016167,0.997210534273,-0.0167824104492,0.997210534273,-0.0167824104492,0.00276405929352,0.0106625016167
1600000000.0,0.00279254955933,0.0113729590138,0.997179082903,-0.0179010021655,0.997179082903,-0.0179010021655,0.00279254955933,0.0113729590138
1700000000.0,0.00282249436348,0.0120833541157,0.997146010071,-0.0190195541481,0.997146010071,-0.0190195541481,0.00282249436348,0.0120833541157
1800000000.0,0.00285390827694,0.012793683725,0.997111301171,-0.0201380638886,0.997111301171,-0.0201380638886,0.00285390827694,0.012793683725
1900000000.0,0.0028868037755,0.0135039446121,0.997074943689,-0.0212565288171,0.997074943689,-0.0212565288171,0.0028868037755,0.0135039446121
2000000000.0,0.00292119162525,0.0142141335204,0.997036926822,-0.0223749463097,0.997036926822,-0.0223749463097,0.00292119162525,0.0142141335204
2100000000.0,0.00295708118161,0.0149242471715,0.996997241177,-0.023493313695,0.996997241177,-0.023493313695,0.00295708118161,0.0149242471715
2200000000.0,0.00299448062445,0.0156342822685,0.996955878534,-0.0246116282593,0.996955878534,-0.0246116282593,0.00299448062445,0.0156342822685
2300000000.0,0.0030333971452,0.0163442354996,0.996912831661,-0.0257298872514,0.996912831661,-0.0257298872514,0.0030333971452,0.0163442354996
2400000000.0,0.00307383709736,0.0170541035407,0.996868094165,-0.0268480878862,0.996868094165,-0.0268480878862,0.00307383709736,0.0170541035407
2500000000.0,0.00311580611881,0.0177638830572,0.996821660367,-0.0279662273479,0.996821660367,-0.0279662273479,0.00311580611881,0.0177638830572
2600000000.0,0.00315930923204,0.0184735707068,0.996773525201,-0.0290843027936,0.996773525201,-0.0290843027936,0.00315930923204,0.0184735707068
2700000000.0,0.00320435092709,0.0191831631406,0.996723684134,-0.0302023113552,0.996723684134,-0.0302023113552,0.00320435092709,0.0191831631406
2800000000.0,0.00325093523054,0.0198926570046,0.996672133097,-0.031320250142,0.996672133097,-0.031320250142,0.00325093523054,0.0198926570046
2900000000.0,0.00329906576343,0.020602048941,0.996618868424,-0.0324381162428,0.996618868424,-0.0324381162428,0.00329906576343,0.020602048941
3000000000.0,0.00334874579017,0.0213113355896,0.996563886806,-0.0335559067273,0.996563886806,-0.0335559067273,0.00334874579017,0.0213113355896
3100000000.0,0.00339997826003,0.022020513588,0.996507185248,-0.034673618648,0.996507185248,-0.034673618648,0.00339997826003,0.022020513588
3200000000.0,0.00345276584263,0.0227295795735,0.996448761035,-0.0357912490418,0.996448761035,-0.0357912490418,0.00345276584263,0.0227295795735
3300000000.0,0.00350711095837,0.0234385301827,0.996388611701,-0.0369087949307,0.996388611701,-0.0369087949307,0.00350711095837,0.0234385301827
3400000000.0,0.00356301580473,0.0241473620531,0.996326735,-0.0380262533236,0.996326735,-0.0380262533236,0.00356301580473,0.0241473620531
3500000000.0,0.003620482379,0.024856071823,0.996263128888,-0.0391436212169,0.996263128888,-0.0391436212169,0.003620482379,0.024856071823
3600000000.0,0.00367951249813,0.0255646561325,0.9961977915,-0.0402608955958,0.9961977915,-0.0402608955958,0.00367951249813,0.0255646561325
3700000000.0,0.00374010781605,0.0262731116235,0.996130721133,-0.0413780734351,0.996130721133,-0.0413780734351,0.00374010781605,0.0262731116235
3800000000.0,0.00380226983885,0.0269814349405,0.996061916234,-0.0424951516996,0.996061916234,-0.0424951516996,0.00380226983885,0.0269814349405
3900000000.0,0.00386599993818,0.0276896227308,0.995991375381,-0.0436121273456,0.995991375381,-0.0436121273456,0.00386599993818,0.0276896227308
4000000000.0,0.00393129936306,0.0283976716448,0.995919097276,-0.0447289973208,0.995919097276,-0.0447289973208,0.00393129936307,0.0283976716448
4100000000.0,0.00399816925039,0.0291055783362,0.995845080731,-0.0458457585654,0.995845080731,-0.0458457585654,0.00399816925039,0.0291055783362
4200000000.0,0.00406661063422,0.0298133394624,0.995769324662,-0.0469624080128,0.995769324662,-0.0469624080128,0.00406661063422,0.0298133394624
4300000000.0,0.00413662445411,0.0305209516848,0.995691828079,-0.0480789425894,0.995691828079,-0.0480789425894,0.00413662445411,0.0305209516848
4400000000.0,0.0042082115625,0.0312284116687,0.995612590078,-0.0491953592161,0.995612590078,-0.0491953592161,0.0042082115625,0.0312284116687
4500000000.0,0.00428137273144,0.031935716084,0.995531609837,-0.0503116548078,0.995531609837,-0.0503116548078,0.00428137273144,0.031935716084
4600000000.0,0.00435610865854,0.0326428616046,0.995448886606,-0.0514278262745,0.995448886606,-0.0514278262745,0.00435610865854,0.0326428616046
4700000000.0,0.00443241997235,0.0333498449094,0.995364419704,-0.0525438705215,0.995364419704,-0.0525438705215,0.00443241997235,0.0333498449094
4800000000.0,0.00451030723726,0.0340566626818,0.995278208514,-0.0536597844496,0.995278208514,-0.0536597844496,0.00451030723726,0.0340566626818
4900000000.0,0.00458977095793,0.0347633116102,0.995190252481,-0.0547755649556,0.995190252481,-0.0547755649556,0.00458977095793,0.0347633116102
5000000000.0,0.00467081158321,0.0354697883877,0.995100551101,-0.0558912089328,0.995100551101,-0.0558912089328,0.00467081158321,0.0354697883877
5100000000.0,0.00475342950988,0.0361760897128,0.995009103926,-0.0570067132707,0.995009103926,-0.0570067132707,0.00475342950988,0.0361760897128
5200000000.0,0.00483762508586,0.0368822122887,0.994915910554,-0.0581220748561,0.994915910554,-0.0581220748561,0.00483762508586,0.0368822122887
5300000000.0,0.00492339861331,0.0375881528243,0.99482097063,-0.0592372905728,0.99482097063,-0.0592372905728,0.00492339861331,0.0375881528243
5400000000.0,0.00501075035136,0.0382939080335,0.994724283841,-0.0603523573019,0.994724283841,-0.0603523573019,0.00501075035136,0.0382939080335
5500000000.0,0.00509968051863,0.0389994746354,0.994625849915,-0.0614672719223,0.994625849915,-0.0614672719223,0.00509968051863,0.0389994746354
5600000000.0,0.00519018929555,0.0397048493548,0.994525668617,-0.0625820313106,0.994525668617,-0.0625820313106,0.00519018929555,0.0397048493548
5700000000.0,0.00528227682651,0.0404100289218,0.994423739748,-0.0636966323417,0.994423739748,-0.0636966323417,0.00528227682651,0.0404100289218
5800000000.0,0.0053759432218,0.0411150100719,0.994320063145,-0.0648110718885,0.994320063145,-0.0648110718885,0.0053759432218,0.0411150100719
5900000000.0,0.00547118855943,0.0418197895463,0.994214638675,-0.0659253468225,0.994214638675,-0.0659253468225,0.00547118855943,0.0418197895463
6000000000.0,0.0055680128868,0.0425243640916,0.994107466236,-0.0670394540139,0.994107466236,-0.0670394540139,0.0055680128868,0.0425243640916
6100000000.0,0.0056664162222,0.04322873046,0.993998545755,-0.0681533903314,0.993998545755,-0.0681533903314,0.00566641622221,0.04322873046
6200000000.0,0.00576639855632,0.0439328854093,0.993887877186,-0.0692671526431,0.993887877186,-0.0692671526431,0.00576639855632,0.0439328854093
6300000000.0,0.00586795985346,0.0446368257029,0.993775460511,-0.0703807378157,0.993775460511,-0.0703807378157,0.00586795985346,0.0446368257029
6400000000.0,0.00597110005287,0.0453405481098,0.993661295735,-0.0714941427155,0.993661295735,-0.0714941427155,0.00597110005287,0.0453405481098
6500000000.0,0.0060758190698,0.0460440494048,0.993545382887,-0.072607364208,0.993545382887,-0.072607364208,0.0060758190698,0.0460440494048
6600000000.0,0.00618211679661,0.0467473263681,0.993427722022,-0.0737203991582,0.993427722022,-0.0737203991582,0.00618211679661,0.0467473263681
6700000000.0,0.00628999310375,0.0474503757857,0.993308313212,-0.0748332444308,0.993308313212,-0.0748332444308,0.00628999310375,0.0474503757857
6800000000.0,0.00639944784064,0.0481531944493,0.993187156553,-0.0759458968901,0.993187156553,-0.0759458968901,0.00639944784064,0.0481531944493
6900000000.0,0.00651048083661,0.0488557791561,0.993064252162,-0.0770583534003,0.993064252162,-0.0770583534003,0.00651048083661,0.0488557791561
7000000000.0,0.00662309190161,0.049558126709,0.992939600171,-0.0781706108256,0.992939600171,-0.0781706108256,0.00662309190161,0.049558126709
7100000000.0,0.00673728082705,0.0502602339168,0.992813200736,-0.07928266603,0.992813200736,-0.07928266603,0.00673728082705,0.0502602339168
7200000000.0,0.00685304738641,0.0509620975935,0.992685054026,-0.080394515878,0.992685054026,-0.080394515878,0.00685304738641,0.0509620975935
7300000000.0,0.006970391336,0.0516637145591,0.992555160231,-0.0815061572339,0.992555160231,-0.0815061572339,0.006970391336,0.0516637145591
7400000000.0,0.00708931241548,0.0523650816392,0.992423519554,-0.0826175869625,0.992423519554,-0.0826175869625,0.00708931241548,0.0523650816392
7500000000.0,0.00720981034853,0.0530661956649,0.992290132219,-0.083728801929,0.992290132219,-0.083728801929,0.00720981034853,0.0530661956649
7600000000.0,0.00733188484333,0.0537670534729,0.992154998459,-0.084839798999,0.992154998459,-0.084839798999,0.00733188484333,0.0537670534729
7700000000.0,0.00745553559312,0.0544676519056,0.992018118529,-0.0859505750385,0.992018118529,-0.0859505750385,0.00745553559312,0.0544676519056
7800000000.0,0.00758076227663,0.055167987811,0.991879492692,-0.0870611269143,0.991879492692,-0.0870611269143,0.00758076227663,0.055167987811
7900000000.0,0.00770756455861,0.0558680580426,0.99173912123,-0.0881714514938,0.99173912123,-0.0881714514938,0.00770756455861,0.0558680580426
8000000000.0,0.0078359420902,0.0565678594596,0.991597004435,-0.0892815456449,0.991597004435,-0.0892815456449,0.0078359420902,0.0565678594596
8100000000.0,0.00796589450936,0.0572673889266,0.991453142616,-0.0903914062365,0.991453142616,-0.0903914062365,0.00796589450936,0.0572673889266
8200000000.0,0.00809742144125,0.0579666433138,0.991307536091,-0.0915010301382,0.991307536091,-0.0915010301382,0.00809742144125,0.0579666433138
8300000000.0,0.0082305224986,0.0586656194969,0.991160185193,-0.0926104142205,0.991160185193,-0.0926104142205,0.0082305224986,0.0586656194969
8400000000.0,0.00836519728207,0.059364314357,0.991011090266,-0.0937195553549,0.991011090266,-0.0937195553549,0.00836519728207,0.059364314357
8500000000.0,0.00850144538051,0.060062724781,0.990860251667,-0.0948284504138,0.990860251667,-0.0948284504138,0.00850144538051,0.060062724781
8600000000.0,0.00863926637136,0.0607608476609,0.990707669763,-0.0959370962706,0.990707669763,-0.0959370962706,0.00863926637136,0.0607608476609
8700000000.0,0.00877865982087,0.0614586798944,0.990553344934,-0.0970454897999,0.990553344934,-0.0970454897999,0.00877865982087,0.0614586798944
8800000000.0,0.00891962528443,0.0621562183843,0.99039727757,-0.0981536278772,0.99039727757,-0.0981536278772,0.00891962528443,0.0621562183843
8900000000.0,0.0090621623068,0.0628534600393,0.990239468071,-0.0992615073793,0.990239468071,-0.0992615073793,0.0090621623068,0.0628534600393
9000000000.0,0.00920627042236,0.063550401773,0.990079916848,-0.100369125184,0.990079916848,-0.100369125184,0.00920627042236,0.063550401773
9100000000.0,0.00935194915539,0.0642470405046,0.989918624324,-0.101476478171,0.989918624324,-0.101476478171,0.00935194915539,0.0642470405046
9200000000.0,0.00949919802025,0.0649433731586,0.989755590929,-0.10258356322,0.989755590929,-0.10258356322,0.00949919802025,0.0649433731586
9300000000.0,0.00964801652163,0.0656393966648,0.989590817106,-0.103690377213,0.989590817106,-0.103690377213,0.00964801652163,0.0656393966648
9400000000.0,0.00979840415472,0.0663351079583,0.989424303304,-0.104796917033,0.989424303304,-0.104796917033,0.00979840415472,0.0663351079583
9500000000.0,0.00995036040548,0.0670305039795,0.989256049985,-0.105903179564,0.989256049985,-0.105903179564,0.00995036040548,0.0670305039795
9600000000.0,0.0101038847507,0.067725581674,0.989086057619,-0.107009161692,0.989086057619,-0.107009161692,0.0101038847507,0.067725581674
9700000000.0,0.0102589766584,0.0684203379927,0.988914326683,-0.108114860304,0.988914326683,-0.108114860304,0.0102589766584,0.0684203379927
9800000000.0,0.0104156355877,0.0691147698916,0.988740857665,-0.109220272288,0.988740857665,-0.109220272288,0.0104156355877,0.0691147698916
9900000000.0,0.0105738609892,0.0698088743319,0.988565651062,-0.110325394536,0.988565651062,-0.110325394536,0.0105738609892,0.0698088743319
10000000000.0,0.0107336523051,0.0705026482802,0.988388707379,-0.111430223937,0.988388707379,-0.111430223937,0.0107336523051,0.0705026482802
