freq (GHz),S11_real,S11_imag,S21_real,S21_imag,S12_real,S12_imag,S22_real,S22_imag
100000000.0,8.3122230282e-05,-0.00205442658746,0.999901319782,-0.00245036911728,0.999901319782,-0.00245036911728,8.3122230282e-05,-0.00205442658746
200000000.0,6.64280512503e-05,-0.00410885366686,0.999883160987,-0.00490075014472,0.999883160987,-0.00490075014472,6.64280512506e-05,-0.00410885366686
300000000.0,3.95058655653e-05,-0.00616325845553,0.999854933457,-0.00735112719448,0.999854933457,-0.00735112719448,3.95058655653e-05,-0.00616325845553
400000000.0,2.4331845403e-06,-0.00821760788121,0.99981655781,-0.00980147243576,0.99981655781,-0.00980147243576,2.43318454052e-06,-0.00821760788121
500000000.0,-4.47607327448e-05,-0.0102718635746,0.99976800305,-0.012251751983,0.99976800305,-0.012251751983,-4.47607327447e-05,-0.0102718635746
600000000.0,-0.000102061287755,-0.0123259836445,0.999709253119,-0.0147019279495,0.999709253119,-0.0147019279495,-0.000102061287755,-0.0123259836445
700000000.0,-0.000169459981775,-0.0143799235911,0.99964029844,-0.0171519594979,0.99964029844,-0.0171519594979,-0.000169459981775,-0.0143799235911
800000000.0,-0.000246951274731,-0.0164336368565,0.999561132857,-0.0196018034702,0.999561132857,-0.0196018034702,-0.000246951274731,-0.0164336368565
900000000.0,-0.000334531173721,-0.0184870751892,0.999471752294,-0.0220514148046,0.999471752294,-0.0220514148046,-0.000334531173721,-0.0184870751892
1000000000.0,-0.000432196507565,-0.0205401889042,0.999372154077,-0.0245007468315,0.999372154077,-0.0245007468315,-0.000432196507565,-0.0205401889042
1100000000.0,-0.000539944515648,-0.0225929270757,0.999262336579,-0.0269497514926,0.999262336579,-0.0269497514926,-0.000539944515648,-0.0225929270757
1200000000.0,-0.000657772596582,-0.0246452376872,0.999142299002,-0.029398379511,0.999142299002,-0.029398379511,-0.000657772596582,-0.0246452376872
1300000000.0,-0.000785678144835,-0.0266970677499,0.999012041258,-0.0318465805255,0.999012041258,-0.0318465805255,-0.000785678144834,-0.0266970677499
1400000000.0,-0.000923658439015,-0.0287483634012,0.998871563888,-0.0342943032008,0.998871563888,-0.0342943032008,-0.000923658439016,-0.0287483634012
1500000000.0,-0.00107171056206,-0.0307990699857,0.998720868011,-0.0367414953195,0.998720868011,-0.0367414953195,-0.00107171056206,-0.0307990699857
1600000000.0,-0.00122983134204,-0.0328491321243,0.998559955295,-0.0391881038591,0.998559955295,-0.0391881038591,-0.00122983134204,-0.0328491321243
1700000000.0,-0.00139801730682,-0.0348984937741,0.998388827936,-0.0416340750593,0.998388827936,-0.0416340750593,-0.00139801730682,-0.0348984937741
1800000000.0,-0.00157626464828,-0.0369470982808,0.998207488646,-0.0440793544803,0.998207488646,-0.0440793544803,-0.00157626464828,-0.0369470982808
1900000000.0,-0.0017645691935,-0.0389948884249,0.998015940644,-0.0465238870545,0.998015940644,-0.0465238870545,-0.0017645691935,-0.0389948884249
2000000000.0,-0.00196292638082,-0.0410418064632,0.997814187659,-0.0489676171319,0.997814187659,-0.0489676171319,-0.00196292638082,-0.0410418064632
2100000000.0,-0.00217133123982,-0.0430877941662,0.99760223392,-0.0514104885221,0.99760223392,-0.0514104885221,-0.00217133123982,-0.0430877941662
2200000000.0,-0.00238977837419,-0.0451327928523,0.997380084162,-0.0538524445317,0.997380084162,-0.0538524445317,-0.00238977837419,-0.0451327928523
2300000000.0,-0.00261826194684,-0.0471767434192,0.997147743628,-0.0562934279989,0.997147743628,-0.0562934279989,-0.00261826194684,-0.0471767434192
2400000000.0,-0.00285677566686,-0.0492195863728,0.996905218067,-0.0587333813251,0.996905218067,-0.0587333813251,-0.00285677566686,-0.0492195863728
2500000000.0,-0.00310531277801,-0.0512612618542,0.996652513742,-0.0611722465045,0.996652513742,-0.0611722465045,-0.00310531277802,-0.0512612618542
2600000000.0,-0.00336386604847,-0.0533017096651,0.996389637432,-0.0636099651516,0.996389637432,-0.0636099651516,-0.00336386604847,-0.0533017096651
2700000000.0,-0.0036324277615,-0.0553408692913,0.996116596431,-0.0660464785269,0.996116596431,-0.0660464785269,-0.0036324277615,-0.0553408692913
2800000000.0,-0.00391098970716,-0.0573786799252,0.995833398558,-0.0684817275614,0.995833398558,-0.0684817275614,-0.00391098970716,-0.0573786799252
2900000000.0,-0.00419954317471,-0.0594150804871,0.995540052156,-0.0709156528794,0.995540052156,-0.0709156528794,-0.00419954317471,-0.0594150804871
3000000000.0,-0.00449807894573,-0.0614500096455,0.995236566099,-0.0733481948204,0.995236566099,-0.0733481948204,-0.00449807894573,-0.0614500096455
3100000000.0,-0.00480658728779,-0.0634834058366,0.994922949793,-0.0757792934599,0.994922949793,-0.0757792934599,-0.00480658728779,-0.0634834058366
3200000000.0,-0.00512505794876,-0.0655152072825,0.994599213178,-0.0782088886296,0.994599213178,-0.0782088886296,-0.00512505794876,-0.0655152072825
3300000000.0,-0.0054534801515,-0.0675453520095,0.994265366736,-0.080636919936,0.994265366736,-0.080636919936,-0.0054534801515,-0.0675453520095
3400000000.0,-0.00579184258907,-0.069573777865,0.993921421488,-0.0830633267792,0.993921421488,-0.0830633267792,-0.00579184258907,-0.069573777865
3500000000.0,-0.00614013342035,-0.0716004225343,0.993567389004,-0.0854880483706,0.993567389004,-0.0854880483706,-0.00614013342035,-0.0716004225343
3600000000.0,-0.006498340266,-0.0736252235565,0.993203281397,-0.0879110237496,0.993203281397,-0.0879110237496,-0.006498340266,-0.0736252235565
3700000000.0,-0.00686645020484,-0.0756481183404,0.992829111335,-0.0903321918005,0.992829111335,-0.0903321918005,-0.00686645020484,-0.0756481183404
3800000000.0,-0.00724444977054,-0.0776690441794,0.992444892034,-0.0927514912687,0.992444892034,-0.0927514912687,-0.00724444977054,-0.0776690441794
3900000000.0,-0.00763232494856,-0.0796879382665,0.992050637267,-0.0951688607761,0.992050637267,-0.0951688607761,-0.00763232494856,-0.0796879382665
4000000000.0,-0.00803006117356,-0.0817047377086,0.991646361364,-0.0975842388362,0.991646361364,-0.0975842388362,-0.00803006117356,-0.0817047377086
4100000000.0,-0.00843764332689,-0.0837193795406,0.991232079211,-0.099997563869,0.991232079211,-0.099997563869,-0.00843764332689,-0.0837193795406
4200000000.0,-0.00885505573454,-0.0857318007389,0.990807806256,-0.102408774216,0.990807806256,-0.102408774216,-0.00885505573454,-0.0857318007389
4300000000.0,-0.00928228216522,-0.0877419382352,0.990373558507,-0.104817808152,0.990373558507,-0.104817808152,-0.00928228216522,-0.0877419382352
4400000000.0,-0.00971930582877,-0.0897497289294,0.989929352532,-0.107224603904,0.989929352532,-0.107224603904,-0.00971930582877,-0.0897497289294
4500000000.0,-0.0101661093748,-0.0917551097026,0.989475205467,-0.109629099657,0.989475205467,-0.109629099657,-0.0101661093748,-0.0917551097026
4600000000.0,-0.0106226748914,-0.0937580174296,0.989011135008,-0.112031233576,0.989011135008,-0.112031233576,-0.0106226748914,-0.0937580174296
4700000000.0,-0.0110889839046,-0.0957583889914,0.988537159417,-0.114430943811,0.988537159417,-0.114430943811,-0.0110889839046,-0.0957583889914
4800000000.0,-0.0115650173772,-0.0977561612873,0.988053297519,-0.116828168515,0.988053297519,-0.116828168515,-0.0115650173772,-0.0977561612873
4900000000.0,-0.0120507557088,-0.099751271247,0.987559568708,-0.119222845853,0.987559568708,-0.119222845853,-0.0120507557088,-0.099751271247
5000000000.0,-0.012546178735,-0.101743655842,0.987055992938,-0.121614914019,0.987055992938,-0.121614914019,-0.012546178735,-0.101743655842
5100000000.0,-0.0130512657278,-0.103733252099,0.986542590733,-0.124004311242,0.986542590733,-0.124004311242,-0.0130512657278,-0.103733252099
5200000000.0,-0.0135659953956,-0.105719997106,0.986019383177,-0.126390975801,0.986019383177,-0.126390975801,-0.0135659953956,-0.105719997106
5300000000.0,-0.0140903458832,-0.107703828031,0.985486391921,-0.128774846037,0.985486391921,-0.128774846037,-0.0140903458832,-0.107703828031
5400000000.0,-0.0146242947729,-0.109684682128,0.984943639179,-0.131155860365,0.984943639179,-0.131155860365,-0.0146242947729,-0.109684682128
5500000000.0,-0.0151678190847,-0.111662496748,0.984391147726,-0.133533957282,0.984391147726,-0.133533957282,-0.0151678190847,-0.111662496748
5600000000.0,-0.0157208952774,-0.113637209351,0.9838289409,-0.13590907538,0.9838289409,-0.13590907538,-0.0157208952774,-0.113637209351
5700000000.0,-0.0162834992498,-0.115608757518,0.983257042599,-0.138281153358,0.983257042599,-0.138281153358,-0.0162834992498,-0.115608757518
5800000000.0,-0.0168556063415,-0.117577078958,0.98267547728,-0.140650130031,0.98267547728,-0.140650130031,-0.0168556063415,-0.117577078958
5900000000.0,-0.0174371913348,-0.11954211152,0.982084269958,-0.143015944342,0.982084269958,-0.143015944342,-0.0174371913348,-0.11954211152
6000000000.0,-0.0180282284558,-0.121503793203,0.981483446202,-0.14537853537,0.981483446202,-0.14537853537,-0.0180282284558,-0.121503793203
6100000000.0,-0.0186286913763,-0.123462062165,0.980873032137,-0.147737842343,0.980873032137,-0.147737842343,-0.0186286913763,-0.123462062165
6200000000.0,-0.019238553216,-0.125416856736,0.98025305444,-0.150093804647,0.98025305444,-0.150093804647,-0.019238553216,-0.125416856736
6300000000.0,-0.0198577865438,-0.127368115423,0.979623540337,-0.152446361835,0.979623540337,-0.152446361835,-0.0198577865438,-0.127368115423
6400000000.0,-0.0204863633809,-0.129315776921,0.978984517602,-0.154795453637,0.978984517602,-0.154795453637,-0.0204863633809,-0.129315776921
6500000000.0,-0.0211242552022,-0.131259780126,0.978336014555,-0.157141019972,0.978336014555,-0.157141019972,-0.0211242552022,-0.131259780126
6600000000.0,-0.0217714329395,-0.133200064139,0.977678060059,-0.159483000955,0.977678060059,-0.159483000955,-0.0217714329395,-0.133200064139
6700000000.0,-0.0224278669837,-0.135136568278,0.977010683515,-0.161821336905,0.977010683515,-0.161821336905,-0.0224278669837,-0.135136568278
6800000000.0,-0.0230935271878,-0.137069232087,0.976333914865,-0.164155968358,0.976333914865,-0.164155968358,-0.0230935271878,-0.137069232087
6900000000.0,-0.0237683828696,-0.138997995341,0.975647784583,-0.166486836076,0.975647784583,-0.166486836076,-0.0237683828696,-0.138997995341
7000000000.0,-0.0244524028147,-0.140922798063,0.974952323674,-0.16881388105,0.974952323674,-0.16881388105,-0.0244524028147,-0.140922798063
7100000000.0,-0.0251455552801,-0.142843580522,0.974247563673,-0.171137044515,0.974247563673,-0.171137044515,-0.0251455552801,-0.142843580522
7200000000.0,-0.0258478079967,-0.14476028325,0.973533536638,-0.173456267958,0.973533536638,-0.173456267958,-0.0258478079967,-0.14476028325
7300000000.0,-0.0265591281736,-0.146672847047,0.972810275151,-0.175771493123,0.972810275151,-0.175771493123,-0.0265591281736,-0.146672847047
7400000000.0,-0.0272794825008,-0.148581212988,0.972077812309,-0.178082662022,0.972077812309,-0.178082662022,-0.0272794825008,-0.148581212988
7500000000.0,-0.0280088371535,-0.150485322433,0.971336181725,-0.180389716942,0.971336181725,-0.180389716942,-0.0280088371535,-0.150485322433
7600000000.0,-0.0287471577954,-0.152385117033,0.970585417522,-0.182692600456,0.970585417522,-0.182692600456,-0.0287471577954,-0.152385117033
7700000000.0,-0.029494409583,-0.154280538741,0.96982555433,-0.184991255427,0.96982555433,-0.184991255427,-0.029494409583,-0.154280538741
7800000000.0,-0.0302505571692,-0.156171529816,0.96905662728,-0.187285625018,0.96905662728,-0.187285625018,-0.0302505571692,-0.156171529816
7900000000.0,-0.0310155647076,-0.158058032833,0.968278672002,-0.189575652698,0.968278672002,-0.189575652698,-0.0310155647076,-0.158058032833
8000000000.0,-0.0317893958568,-0.159939990689,0.967491724623,-0.191861282253,0.967491724623,-0.191861282253,-0.0317893958568,-0.159939990689
8100000000.0,-0.0325720137845,-0.161817346611,0.966695821754,-0.194142457791,0.966695821754,-0.194142457791,-0.0325720137845,-0.161817346611
8200000000.0,-0.0333633811719,-0.163690044163,0.965891000498,-0.196419123749,0.965891000498,-0.196419123749,-0.0333633811719,-0.163690044163
8300000000.0,-0.0341634602186,-0.165558027253,0.965077298433,-0.1986912249,0.965077298433,-0.1986912249,-0.0341634602186,-0.165558027253
8400000000.0,-0.0349722126467,-0.167421240141,0.964254753618,-0.200958706364,0.964254753618,-0.200958706364,-0.0349722126467,-0.167421240141
8500000000.0,-0.035789599706,-0.169279627442,0.96342340458,-0.203221513607,0.96342340458,-0.203221513607,-0.035789599706,-0.169279627442
8600000000.0,-0.0366155821781,-0.171133134139,0.962583290315,-0.205479592458,0.962583290315,-0.205479592458,-0.0366155821781,-0.171133134139
8700000000.0,-0.0374501203823,-0.172981705583,0.96173445028,-0.207732889107,0.96173445028,-0.207732889107,-0.0374501203823,-0.172981705583
8800000000.0,-0.0382931741795,-0.174825287504,0.960876924389,-0.209981350115,0.960876924389,-0.209981350115,-0.0382931741795,-0.174825287504
8900000000.0,-0.039144702978,-0.176663826015,0.960010753007,-0.212224922422,0.960010753007,-0.212224922422,-0.039144702978,-0.176663826015
9000000000.0,-0.0400046657384,-0.178497267618,0.959135976947,-0.21446355335,0.959135976947,-0.21446355335,-0.0400046657384,-0.178497267618
9100000000.0,-0.0408730209787,-0.180325559211,0.958252637463,-0.216697190611,0.958252637463,-0.216697190611,-0.0408730209787,-0.180325559211
9200000000.0,-0.0417497267799,-0.182148648096,0.957360776244,-0.218925782315,0.957360776244,-0.218925782315,-0.0417497267799,-0.182148648096
9300000000.0,-0.0426347407909,-0.183966481979,0.956460435412,-0.22114927697,0.956460435412,-0.22114927697,-0.0426347407909,-0.183966481979
9400000000.0,-0.0435280202344,-0.185779008982,0.955551657511,-0.223367623494,0.955551657511,-0.223367623494,-0.0435280202344,-0.185779008982
9500000000.0,-0.0444295219123,-0.187586177644,0.954634485508,-0.225580771219,0.954634485508,-0.225580771219,-0.0444295219123,-0.187586177644
9600000000.0,-0.0453392022111,-0.18938793693,0.953708962783,-0.227788669892,0.953708962783,-0.227788669892,-0.0453392022111,-0.18938793693
9700000000.0,-0.0462570171078,-0.19118423623,0.952775133124,-0.229991269688,0.952775133124,-0.229991269688,-0.0462570171078,-0.19118423623
9800000000.0,-0.0471829221753,-0.192975025375,0.951833040722,-0.23218852121,0.951833040722,-0.23218852121,-0.0471829221753,-0.192975025375
9900000000.0,-0.0481168725885,-0.19476025463,0.950882730166,-0.234380375494,0.950882730166,-0.234380375494,-0.0481168725885,-0.19476025463
10000000000.0,-0.0490588231299,-0.196539874708,0.949924246434,-0.236566784018,0.949924246434,-0.236566784018,-0.0490588231299,-0.196539874708
