freq (GHz),S11_real,S11_imag,S21_real,S21_imag,S12_real,S12_imag,S22_real,S22_imag
100000000.0,0.00285788817797,0.00165631295634,0.997137113415,-0.00370524151258,0.997137113415,-0.00370524151258,0.00285788817797,0.00165631295634
200000000.0,0.00289443480597,0.0033123288982,0.997092365986,-0.00741021514108,0.997092365986,-0.00741021514108,0.00289443480597,0.0033123288982
300000000.0,0.00293828074487,0.00496803063383,0.997036116375,-0.0111149216659,0.997036116375,-0.0111149216659,0.00293828074487,0.00496803063383
400000000.0,0.0029918930968,0.0066233475406,0.996965896866,-0.014819303787,0.996965896866,-0.014819303787,0.0029918930968,0.0066233475406
500000000.0,0.00305621928644,0.00827819664878,0.996880759287,-0.018523289481,0.996880759287,-0.018523289481,0.00305621928644,0.00827819664878
600000000.0,0.00313173990096,0.00993248959287,0.996780222188,-0.022226799756,0.996780222188,-0.022226799756,0.00313173990096,0.00993248959287
700000000.0,0.00321873624593,0.0115861351126,0.996664003291,-0.0259297515644,0.996664003291,-0.0259297515644,0.00321873624593,0.0115861351126
800000000.0,0.00331738796171,0.0132390402162,0.996531921879,-0.029632059214,0.996531921879,-0.029632059214,0.00331738796171,0.0132390402162
900000000.0,0.00342781647191,0.0148911108075,0.996383855355,-0.0333336351598,0.996383855355,-0.0333336351598,0.00342781647191,0.0148911108075
1000000000.0,0.00355010699842,0.0165422520601,0.996219717234,-0.0370343904945,0.996219717234,-0.0370343904945,0.00355010699842,0.0165422520601
1100000000.0,0.0036843207948,0.0181923686568,0.996039444908,-0.040734235274,0.996039444908,-0.040734235274,0.0036843207948,0.0181923686568
1200000000.0,0.00383050243326,0.0198413649519,0.995842992366,-0.0444330787464,0.995842992366,-0.0444330787464,0.00383050243326,0.0198413649519
1300000000.0,0.00398868438761,0.0214891450869,0.995630325615,-0.0481308295202,0.995630325615,-0.0481308295202,0.00398868438761,0.0214891450869
1400000000.0,0.00415889004493,0.0231356130758,0.995401419671,-0.0518273956918,0.995401419671,-0.0518273956918,0.00415889004493,0.0231356130758
1500000000.0,0.00434113575721,0.0247806728694,0.995156256507,-0.0555226849457,0.995156256507,-0.0555226849457,0.00434113575721,0.0247806728694
1600000000.0,0.00453543228224,0.0264242284074,0.994894823618,-0.0592166046352,0.994894823618,-0.0592166046352,0.00453543228224,0.0264242284074
1700000000.0,0.00474178582204,0.0280661836586,0.994617112985,-0.0629090618485,0.994617112985,-0.0629090618485,0.00474178582204,0.0280661836586
1800000000.0,0.00496019878812,0.0297064426553,0.994323120307,-0.0665999634641,0.994323120307,-0.0665999634641,0.00496019878812,0.0297064426553
1900000000.0,0.00519067037669,0.031344909522,0.994012844433,-0.0702892161986,0.994012844433,-0.0702892161986,0.00519067037669,0.031344909522
2000000000.0,0.0054331970085,0.0329814884999,0.993686286923,-0.0739767266472,0.993686286923,-0.0739767266472,0.0054331970085,0.0329814884999
2100000000.0,0.0056877726704,0.0346160839681,0.993343451706,-0.0776624013201,0.993343451706,-0.0776624013201,0.0056877726704,0.0346160839681
2200000000.0,0.00595438918436,0.0362486004632,0.992984344814,-0.0813461466745,0.992984344814,-0.0813461466745,0.00595438918436,0.0362486004632
2300000000.0,0.00623303642198,0.0378789426959,0.992608974166,-0.0850278691431,0.992608974166,-0.0850278691431,0.00623303642198,0.0378789426959
2400000000.0,0.00652370247763,0.0395070155671,0.992217349404,-0.0887074751605,0.992217349404,-0.0887074751605,0.00652370247763,0.0395070155671
2500000000.0,0.00682637380953,0.0411327241819,0.991809481742,-0.0923848711867,0.991809481742,-0.0923848711867,0.00682637380953,0.0411327241819
2600000000.0,0.00714103535609,0.0427559738632,0.991385383863,-0.0960599637294,0.991385383863,-0.0960599637294,0.00714103535609,0.0427559738632
2700000000.0,0.00746767063254,0.0443766701641,0.990945069812,-0.0997326593643,0.990945069812,-0.0997326593643,0.00746767063254,0.0443766701641
2800000000.0,0.00780626181206,0.04599471888,0.990488554924,-0.103402864754,0.990488554924,-0.103402864754,0.00780626181206,0.04599471888
2900000000.0,0.0081567897943,0.0476100260595,0.990015855755,-0.107070486666,0.990015855755,-0.107070486666,0.0081567897943,0.0476100260595
3000000000.0,0.00851923426394,0.0492224980155,0.989526990021,-0.110735431991,0.989526990021,-0.110735431991,0.00851923426394,0.0492224980155
3100000000.0,0.00889357374088,0.0508320413354,0.989021976552,-0.114397607754,0.989021976552,-0.114397607754,0.00889357374088,0.0508320413354
3200000000.0,0.00927978562381,0.0524385628909,0.988500835249,-0.118056921138,0.988500835249,-0.118056921138,0.00927978562381,0.0524385628909
3300000000.0,0.00967784622812,0.054041969848,0.987963587046,-0.121713279489,0.987963587046,-0.121713279489,0.00967784622812,0.054041969848
3400000000.0,0.0100877308193,0.0556421696762,0.987410253878,-0.125366590338,0.987410253878,-0.125366590338,0.0100877308193,0.0556421696762
3500000000.0,0.0105094136422,0.0572390701575,0.986840858651,-0.129016761409,0.986840858651,-0.129016761409,0.0105094136422,0.0572390701575
3600000000.0,0.0109428679476,0.0588325793957,0.98625542522,-0.132663700636,0.98625542522,-0.132663700636,0.0109428679476,0.0588325793957
3700000000.0,0.0113880660157,0.0604226058246,0.985653978361,-0.13630731617,0.985653978361,-0.13630731617,0.0113880660157,0.0604226058246
3800000000.0,0.011844979177,0.0620090582168,0.985036543756,-0.139947516399,0.985036543756,-0.139947516399,0.011844979177,0.0620090582168
3900000000.0,0.012313577832,0.0635918456922,0.98440314797,-0.14358420995,0.98440314797,-0.14358420995,0.012313577832,0.0635918456922
4000000000.0,0.0127938314687,0.0651708777258,0.983753818437,-0.14721730571,0.983753818437,-0.14721730571,0.0127938314687,0.0651708777258
4100000000.0,0.0132857086788,0.0667460641562,0.98308858344,-0.15084671283,0.98308858344,-0.15084671283,0.0132857086788,0.0667460641562
4200000000.0,0.0137891771726,0.0683173151933,0.982407472103,-0.154472340738,0.982407472103,-0.154472340738,0.0137891771726,0.0683173151933
4300000000.0,0.0143042037932,0.069884541426,0.981710514374,-0.158094099152,0.981710514374,-0.158094099152,0.0143042037932,0.069884541426
4400000000.0,0.0148307545294,0.07144765383,0.98099774101,-0.161711898085,0.98099774101,-0.161711898085,0.0148307545294,0.07144765383
4500000000.0,0.0153687945279,0.0730065637757,0.98026918357,-0.165325647861,0.98026918357,-0.165325647861,0.0153687945279,0.0730065637757
4600000000.0,0.0159182881052,0.0745611830349,0.979524874402,-0.168935259117,0.979524874402,-0.168935259117,0.0159182881052,0.0745611830349
4700000000.0,0.0164791987583,0.076111423789,0.97876484663,-0.172540642823,0.97876484663,-0.172540642823,0.0164791987583,0.076111423789
4800000000.0,0.0170514891755,0.0776571986354,0.97798913415,-0.176141710279,0.97798913415,-0.176141710279,0.0170514891755,0.0776571986354
4900000000.0,0.0176351212465,0.0791984205956,0.977197771613,-0.179738373136,0.977197771613,-0.179738373136,0.0176351212465,0.0791984205956
5000000000.0,0.018230056072,0.0807350031214,0.976390794421,-0.183330543395,0.976390794421,-0.183330543395,0.018230056072,0.0807350031214
5100000000.0,0.0188362539729,0.0822668601024,0.975568238715,-0.186918133424,0.975568238715,-0.186918133424,0.0188362539729,0.0822668601024
5200000000.0,0.0194536744999,0.0837939058725,0.974730141368,-0.190501055959,0.974730141368,-0.190501055959,0.0194536744999,0.0837939058725
5300000000.0,0.0200822764422,0.0853160552169,0.973876539977,-0.194079224118,0.973876539977,-0.194079224118,0.0200822764422,0.0853160552169
5400000000.0,0.0207220178358,0.0868332233788,0.973007472852,-0.197652551407,0.973007472852,-0.197652551407,0.0207220178358,0.0868332233788
5500000000.0,0.0213728559724,0.0883453260659,0.972122979011,-0.201220951728,0.972122979011,-0.201220951728,0.0213728559724,0.0883453260659
5600000000.0,0.0220347474076,0.0898522794568,0.97122309817,-0.204784339387,0.97122309817,-0.204784339387,0.0220347474076,0.0898522794568
5700000000.0,0.0227076479688,0.0913540002074,0.970307870735,-0.208342629103,0.970307870735,-0.208342629103,0.0227076479688,0.0913540002074
5800000000.0,0.0233915127636,0.0928504054577,0.969377337797,-0.211895736014,0.969377337797,-0.211895736014,0.0233915127636,0.0928504054577
5900000000.0,0.0240862961878,0.0943414128373,0.968431541121,-0.215443575683,0.968431541121,-0.215443575683,0.0240862961878,0.0943414128373
6000000000.0,0.0247919519326,0.0958269404718,0.96747052314,-0.218986064111,0.96747052314,-0.218986064111,0.0247919519326,0.0958269404718
6100000000.0,0.0255084329933,0.0973069069892,0.966494326947,-0.222523117736,0.966494326947,-0.222523117736,0.0255084329933,0.0973069069892
6200000000.0,0.0262356916762,0.0987812315253,0.965502996289,-0.22605465345,0.965502996289,-0.22605465345,0.0262356916762,0.0987812315253
6300000000.0,0.026973679607,0.10024983373,0.964496575557,-0.229580588596,0.964496575557,-0.229580588596,0.026973679607,0.10024983373
6400000000.0,0.0277223477377,0.101712633773,0.963475109782,-0.23310084098,0.963475109782,-0.23310084098,0.0277223477377,0.101712633773
6500000000.0,0.0284816463547,0.103169552348,0.962438644625,-0.236615328877,0.962438644625,-0.236615328877,0.0284816463547,0.103169552348
6600000000.0,0.0292515250863,0.104620510682,0.961387226369,-0.24012397104,0.961387226369,-0.24012397104,0.0292515250863,0.104620510682
6700000000.0,0.0300319329098,0.106065430537,0.960320901915,-0.2436266867,0.960320901915,-0.2436266867,0.0300319329098,0.106065430537
6800000000.0,0.0308228181596,0.107504234217,0.959239718773,-0.247123395577,0.959239718773,-0.247123395577,0.0308228181596,0.107504234217
6900000000.0,0.0316241285343,0.108936844573,0.958143725053,-0.250614017885,0.958143725053,-0.250614017885,0.0316241285343,0.108936844573
7000000000.0,0.0324358111044,0.110363185009,0.95703296946,-0.25409847434,0.95703296946,-0.25409847434,0.0324358111044,0.110363185009
7100000000.0,0.0332578123195,0.111783179486,0.955907501288,-0.257576686162,0.955907501288,-0.257576686162,0.0332578123195,0.111783179486
7200000000.0,0.0340900780161,0.113196752527,0.954767370407,-0.261048575083,0.954767370407,-0.261048575083,0.0340900780161,0.113196752527
7300000000.0,0.034932553425,0.114603829223,0.953612627263,-0.264514063352,0.953612627263,-0.264514063352,0.034932553425,0.114603829223
7400000000.0,0.0357851831785,0.116004335238,0.952443322865,-0.267973073742,0.952443322865,-0.267973073742,0.0357851831785,0.116004335238
7500000000.0,0.0366479113182,0.117398196812,0.95125950878,-0.271425529553,0.95125950878,-0.271425529553,0.0366479113182,0.117398196812
7600000000.0,0.0375206813024,0.118785340767,0.950061237128,-0.274871354619,0.950061237128,-0.274871354619,0.0375206813024,0.118785340767
7700000000.0,0.0384034360134,0.120165694512,0.948848560568,-0.278310473314,0.948848560568,-0.278310473314,0.0384034360134,0.120165694512
7800000000.0,0.0392961177655,0.121539186046,0.947621532298,-0.281742810553,0.947621532298,-0.281742810553,0.0392961177655,0.121539186046
7900000000.0,0.0401986683116,0.122905743962,0.946380206044,-0.285168291802,0.946380206044,-0.285168291802,0.0401986683116,0.122905743962
8000000000.0,0.0411110288518,0.124265297456,0.945124636053,-0.28858684308,0.945124636053,-0.28858684308,0.0411110288518,0.124265297456
8100000000.0,0.0420331400399,0.125617776323,0.943854877085,-0.291998390962,0.943854877085,-0.291998390962,0.0420331400399,0.125617776323
8200000000.0,0.0429649419918,0.126963110969,0.942570984407,-0.295402862589,0.942570984407,-0.295402862589,0.0429649419918,0.126963110969
8300000000.0,0.0439063742925,0.128301232411,0.941273013785,-0.298800185667,0.941273013785,-0.298800185667,0.0439063742925,0.128301232411
8400000000.0,0.0448573760036,0.129632072279,0.939961021477,-0.302190288474,0.939961021477,-0.302190288474,0.0448573760036,0.129632072279
8500000000.0,0.0458178856714,0.130955562827,0.938635064224,-0.305573099863,0.938635064224,-0.305573099863,0.0458178856714,0.130955562827
8600000000.0,0.0467878413337,0.132271636928,0.937295199244,-0.308948549268,0.937295199244,-0.308948549268,0.0467878413337,0.132271636928
8700000000.0,0.0477671805282,0.133580228083,0.935941484225,-0.312316566706,0.935941484225,-0.312316566706,0.0477671805282,0.133580228083
8800000000.0,0.0487558402993,0.134881270424,0.934573977315,-0.315677082783,0.934573977315,-0.315677082783,0.0487558402993,0.134881270424
8900000000.0,0.0497537572062,0.136174698715,0.933192737118,-0.319030028696,0.933192737118,-0.319030028696,0.0497537572062,0.136174698715
9000000000.0,0.0507608673305,0.137460448358,0.931797822685,-0.322375336235,0.931797822685,-0.322375336235,0.0507608673305,0.137460448358
9100000000.0,0.0517771062833,0.138738455395,0.930389293504,-0.325712937791,0.930389293504,-0.325712937791,0.0517771062833,0.138738455395
9200000000.0,0.0528024092134,0.14000865651,0.928967209495,-0.329042766358,0.928967209495,-0.329042766358,0.0528024092134,0.14000865651
9300000000.0,0.0538367108147,0.141270989036,0.927531631005,-0.332364755533,0.927531631005,-0.332364755533,0.0538367108147,0.141270989036
9400000000.0,0.0548799453336,0.142525390952,0.926082618795,-0.335678839523,0.926082618795,-0.335678839523,0.0548799453336,0.142525390952
9500000000.0,0.055932046577,0.143771800892,0.924620234035,-0.338984953147,0.924620234035,-0.338984953147,0.055932046577,0.143771800892
9600000000.0,0.0569929479196,0.145010158141,0.923144538297,-0.342283031838,0.923144538297,-0.342283031838,0.0569929479196,0.145010158141
9700000000.0,0.0580625823118,0.146240402645,0.921655593549,-0.345573011649,0.921655593549,-0.345573011649,0.0580625823118,0.146240402645
9800000000.0,0.0591408822871,0.147462475008,0.920153462141,-0.348854829251,0.920153462141,-0.348854829251,0.0591408822871,0.147462475008
9900000000.0,0.0602277799697,0.148676316497,0.918638206807,-0.352128421938,0.918638206807,-0.352128421938,0.0602277799697,0.148676316497
10000000000.0,0.0613232070826,0.149881869044,0.917109890648,-0.355393727634,0.917109890648,-0.355393727634,0.0613232070826,0.149881869044
