freq (GHz),S11_real,S11_imag,S21_real,S21_imag,S12_real,S12_imag,S22_real,S22_imag
100000000.0,-0.000946541312137,-0.0314420157074,0.99886750605,-0.0320076993874,0.99886750605,-0.0320076993874,-0.000946541312137,-0.0314420157074
200000000.0,-0.00398730801422,-0.0626892529307,0.995824991371,-0.0638206960209,0.995824991371,-0.0638206960209,-0.00398730801422,-0.0626892529307
300000000.0,-0.00899424965264,-0.0935548837553,0.990816300146,-0.0952522067931,0.990816300146,-0.0952522067931,-0.00899424965264,-0.0935548837553
400000000.0,-0.0159081330218,-0.123859615129,0.98390050534,-0.126122975049,0.98390050534,-0.126122975049,-0.0159081330218,-0.123859615129
500000000.0,-0.0246487905139,-0.153435001395,0.975157712866,-0.156264587333,0.975157712866,-0.156264587333,-0.0246487905139,-0.153435001395
600000000.0,-0.0351173556446,-0.182126330598,0.964686757638,-0.185522361122,0.964686757638,-0.185522361122,-0.0351173556446,-0.182126330598
700000000.0,-0.0471989552961,-0.209794984853,0.952602493968,-0.213757705923,0.952602493968,-0.213757705923,-0.0471989552961,-0.209794984853
800000000.0,-0.0607657061518,-0.236320212029,0.939032792809,-0.240849895385,0.939032792809,-0.240849895385,-0.0607657061518,-0.236320212029
900000000.0,-0.0756798733602,-0.26160028178,0.92411538029,-0.266697223615,0.92411538029,-0.266697223615,-0.0756798733602,-0.26160028178
1000000000.0,-0.0917970560979,-0.285553032893,0.907994650731,-0.291217552733,0.907994650731,-0.291217552733,-0.0917970560979,-0.285553032893
1100000000.0,-0.108969277574,-0.308115848744,0.890818575849,-0.314348288475,0.890818575849,-0.314348288475,-0.108969277574,-0.308115848744
1200000000.0,-0.127047875679,-0.329245121595,0.872735813648,-0.336045844604,0.872735813648,-0.336045844604,-0.127047875679,-0.329245121595
1300000000.0,-0.145886112978,-0.348915283471,0.853893098128,-0.35628467388,0.853893098128,-0.35628467388,-0.145886112978,-0.348915283471
1400000000.0,-0.165341448879,-0.367117491242,0.834432966928,-0.375055953223,0.834432966928,-0.375055953223,-0.165341448879,-0.367117491242
1500000000.0,-0.185277440531,-0.383858056743,0.814491860295,-0.392366013884,0.814491860295,-0.392366013884,-0.185277440531,-0.383858056743
1600000000.0,-0.205565260747,-0.399156710165,0.794198603074,-0.408234604901,0.794198603074,-0.408234604901,-0.205565260747,-0.399156710165
1700000000.0,-0.226084839785,-0.413044777945,0.773673262856,-0.422693071028,0.773673262856,-0.422693071028,-0.226084839785,-0.413044777945
1800000000.0,-0.246725652622,-0.425563346189,0.753026362664,-0.435782516199,0.753026362664,-0.435782516199,-0.246725652622,-0.425563346189
1900000000.0,-0.267387184108,-0.436761468695,0.732358415758,-0.447552011587,0.732358415758,-0.447552011587,-0.267387184108,-0.436761468695
2000000000.0,-0.287979111351,-0.446694466008,0.711759743222,-0.458056894688,0.711759743222,-0.458056894688,-0.287979111351,-0.446694466008
2100000000.0,-0.308421246261,-0.455422349623,0.691310531404,-0.467357193558,0.691310531404,-0.467357193558,-0.308421246261,-0.455422349623
2200000000.0,-0.328643281831,-0.46300839407,0.671081085615,-0.475516198916,0.671081085615,-0.475516198916,-0.328643281831,-0.46300839407
2300000000.0,-0.348584384302,-0.469517869664,0.651132237953,-0.482599196925,0.651132237953,-0.482599196925,-0.348584384302,-0.469517869664
2400000000.0,-0.36819267021,-0.475016940386,0.631515870249,-0.488672367086,0.631515870249,-0.488672367086,-0.36819267021,-0.475016940386
2500000000.0,-0.38742460322,-0.479571724747,0.612275517213,-0.493801843129,0.612275517213,-0.493801843129,-0.38742460322,-0.479571724747
2600000000.0,-0.406244341002,-0.483247512475,0.593447019566,-0.498052929714,0.593447019566,-0.498052929714,-0.406244341002,-0.483247512475
2700000000.0,-0.424623057527,-0.48610812636,0.575059201731,-0.501489464295,0.575059201731,-0.501489464295,-0.424623057527,-0.48610812636
2800000000.0,-0.442538261508,-0.488215416312,0.55713455339,-0.504173311195,0.55713455339,-0.504173311195,-0.442538261508,-0.488215416312
2900000000.0,-0.459973127272,-0.489628871505,0.539689898603,-0.506163973762,0.539689898603,-0.506163973762,-0.459973127272,-0.489628871505
3000000000.0,-0.476915850447,-0.490405336076,0.522737040123,-0.507518310082,0.522737040123,-0.507518310082,-0.476915850447,-0.490405336076
3100000000.0,-0.493359037385,-0.490598814102,0.506283369974,-0.508290337974,0.506283369974,-0.508290337974,-0.493359037385,-0.490598814102
3200000000.0,-0.509299134324,-0.490260350287,0.490332440275,-0.508531115685,0.490332440275,-0.508531115685,-0.509299134324,-0.490260350287
3300000000.0,-0.52473589992,-0.489437973752,0.474884490719,-0.508288685694,0.474884490719,-0.508288685694,-0.52473589992,-0.489437973752
3400000000.0,-0.539671922813,-0.488176693519,0.459936930997,-0.507608070204,0.459936930997,-0.507608070204,-0.539671922813,-0.488176693519
3500000000.0,-0.554112184397,-0.486518535503,0.445484778027,-0.506531308154,0.445484778027,-0.506531308154,-0.554112184397,-0.486518535503
3600000000.0,-0.568063665836,-0.484502612113,0.431521048944,-0.505097524815,0.431521048944,-0.505097524815,-0.568063665836,-0.484502612113
3700000000.0,-0.58153499751,-0.482165216743,0.418037111645,-0.503343026307,0.418037111645,-0.503343026307,-0.58153499751,-0.482165216743
3800000000.0,-0.594536148527,-0.479539936628,0.405022995277,-0.501301412454,0.405022995277,-0.501301412454,-0.594536148527,-0.479539936628
3900000000.0,-0.607078153574,-0.476657778539,0.392467663391,-0.499003702492,0.392467663391,-0.499003702492,-0.607078153574,-0.476657778539
4000000000.0,-0.619172874157,-0.473547302774,0.380359252695,-0.496478469068,0.380359252695,-0.496478469068,-0.619172874157,-0.473547302774
4100000000.0,-0.630832791246,-0.470234761709,0.368685280411,-0.493751976799,0.368685280411,-0.493751976799,-0.630832791246,-0.470234761709
4200000000.0,-0.642070826335,-0.466744239926,0.357432823215,-0.490848322408,0.357432823215,-0.490848322408,-0.642070826335,-0.466744239926
4300000000.0,-0.652900188041,-0.463097793533,0.346588670634,-0.487789574052,0.346588670634,-0.487789574052,-0.652900188041,-0.463097793533
4400000000.0,-0.663334241499,-0.459315586843,0.336139455657,-0.484595908009,0.336139455657,-0.484595908009,-0.663334241499,-0.459315586843
4500000000.0,-0.673386397973,-0.455416025033,0.326071765116,-0.481285741342,0.326071765116,-0.481285741342,-0.673386397973,-0.455416025033
4600000000.0,-0.683070022333,-0.451415881739,0.316372232213,-0.477875859502,0.316372232213,-0.477875859502,-0.683070022333,-0.451415881739
4700000000.0,-0.692398356185,-0.447330420907,0.307027613387,-0.47438153819,0.307027613387,-0.47438153819,-0.692398356185,-0.447330420907
4800000000.0,-0.701384454706,-0.443173512414,0.298024851486,-0.470816658974,0.298024851486,-0.470816658974,-0.701384454706,-0.443173512414
4900000000.0,-0.710041135368,-0.438957741211,0.289351127028,-0.467193818449,0.289351127028,-0.467193818449,-0.710041135368,-0.438957741211
5000000000.0,-0.71838093698,-0.434694509871,0.280993899174,-0.463524430785,0.280993899174,-0.463524430785,-0.71838093698,-0.434694509871
5100000000.0,-0.7264160876,-0.430394134585,0.272940937806,-0.45981882373,0.272940937806,-0.45981882373,-0.7264160876,-0.430394134585
5200000000.0,-0.734158480059,-0.426065934698,0.265180348005,-0.456086328154,0.265180348005,-0.456086328154,-0.734158480059,-0.426065934698
5300000000.0,-0.74161965399,-0.421718315989,0.257700588025,-0.452335361328,0.257700588025,-0.452335361328,-0.74161965399,-0.421718315989
5400000000.0,-0.74881078336,-0.417358847923,0.250490481754,-0.448573504189,0.250490481754,-0.448573504189,-0.74881078336,-0.417358847923
5500000000.0,-0.755742668675,-0.412994335154,0.243539226517,-0.444807572843,0.243539226517,-0.444807572843,-0.755742668675,-0.412994335154
5600000000.0,-0.762425733078,-0.408630883576,0.236836396968,-0.441043684623,0.236836396968,-0.441043684623,-0.762425733078,-0.408630883576
5700000000.0,-0.76887002172,-0.404273961223,0.230371945726,-0.437287318993,0.230371945726,-0.437287318993,-0.76887002172,-0.404273961223
5800000000.0,-0.775085203814,-0.399928454346,0.22413620132,-0.433543373631,0.22413620132,-0.433543373631,-0.775085203814,-0.399928454346
5900000000.0,-0.781080576898,-0.395598718965,0.218119863918,-0.429816215982,0.218119863918,-0.429816215982,-0.781080576898,-0.395598718965
6000000000.0,-0.786865072897,-0.391288628211,0.212313999278,-0.426109730609,0.212313999278,-0.426109730609,-0.786865072897,-0.391288628211
6100000000.0,-0.792447265597,-0.387001615755,0.206710031261,-0.422427362622,0.206710031261,-0.422427362622,-0.792447265597,-0.387001615755
6200000000.0,-0.797835379259,-0.382740715607,0.201299733222,-0.418772157486,0.201299733222,-0.418772157486,-0.797835379259,-0.382740715607
6300000000.0,-0.803037298086,-0.378508598559,0.196075218544,-0.41514679746,0.196075218544,-0.41514679746,-0.803037298086,-0.378508598559
6400000000.0,-0.808060576332,-0.374307605525,0.191028930526,-0.411553634951,0.191028930526,-0.411553634951,-0.808060576332,-0.374307605525
6500000000.0,-0.812912448869,-0.370139778034,0.186153631818,-0.407994723003,0.186153631818,-0.407994723003,-0.812912448869,-0.370139778034
6600000000.0,-0.817599842041,-0.366006886083,0.18144239356,-0.404471843159,0.18144239356,-0.404471843159,-0.817599842041,-0.366006886083
6700000000.0,-0.822129384697,-0.361910453587,0.176888584359,-0.400986530909,0.176888584359,-0.400986530909,-0.822129384697,-0.361910453587
6800000000.0,-0.82650741927,-0.357851781599,0.172485859202,-0.397540098918,0.172485859202,-0.397540098918,-0.82650741927,-0.357851781599
6900000000.0,-0.830740012829,-0.353831969506,0.168228148406,-0.394133658223,0.168228148406,-0.394133658223,-0.830740012829,-0.353831969506
7000000000.0,-0.834832968019,-0.349851934354,0.164109646674,-0.390768137566,0.164109646674,-0.390768137566,-0.834832968019,-0.349851934354
7100000000.0,-0.838791833845,-0.345912428474,0.16012480232,-0.387444301013,0.16012480232,-0.387444301013,-0.838791833845,-0.345912428474
7200000000.0,-0.842621916228,-0.342014055538,0.1562683067,-0.384162764027,0.1562683067,-0.384162764027,-0.842621916228,-0.342014055538
7300000000.0,-0.846328288326,-0.338157285195,0.152535083902,-0.380924008093,0.152535083902,-0.380924008093,-0.846328288326,-0.338157285195
7400000000.0,-0.849915800562,-0.334342466397,0.148920280707,-0.377728394059,0.148920280707,-0.377728394059,-0.849915800562,-0.334342466397
7500000000.0,-0.853389090364,-0.330569839533,0.145419256859,-0.374576174266,0.145419256859,-0.374576174266,-0.853389090364,-0.330569839533
7600000000.0,-0.856752591577,-0.326839547479,0.142027575644,-0.371467503602,0.142027575644,-0.371467503602,-0.856752591577,-0.326839547479
7700000000.0,-0.860010543558,-0.323151645645,0.138740994798,-0.368402449556,0.138740994798,-0.368402449556,-0.860010543558,-0.323151645645
7800000000.0,-0.863166999935,-0.319506111126,0.135555457749,-0.365381001362,0.135555457749,-0.365381001362,-0.863166999935,-0.319506111126
7900000000.0,-0.86622583703,-0.315902851014,0.132467085188,-0.362403078327,0.132467085188,-0.362403078327,-0.86622583703,-0.315902851014
8000000000.0,-0.869190761955,-0.312341709961,0.129472166981,-0.359468537385,0.129472166981,-0.359468537385,-0.869190761955,-0.312341709961
8100000000.0,-0.87206532037,-0.308822477053,0.126567154402,-0.356577179982,0.126567154402,-0.356577179982,-0.87206532037,-0.308822477053
8200000000.0,-0.874852903917,-0.305344892056,0.123748652703,-0.353728758318,0.123748652703,-0.353728758318,-0.874852903917,-0.305344892056
8300000000.0,-0.87755675734,-0.301908651083,0.121013413994,-0.350922981022,0.121013413994,-0.350922981022,-0.87755675734,-0.301908651083
8400000000.0,-0.880179985283,-0.29851341175,0.11835833044,-0.348159518305,0.11835833044,-0.348159518305,-0.880179985283,-0.29851341175
8500000000.0,-0.882725558795,-0.295158797843,0.11578042776,-0.345438006638,0.11578042776,-0.345438006638,-0.882725558795,-0.295158797843
8600000000.0,-0.885196321533,-0.291844403565,0.113276859021,-0.34275805299,0.113276859021,-0.34275805299,-0.885196321533,-0.291844403565
8700000000.0,-0.887594995689,-0.288569797374,0.110844898713,-0.340119238678,0.110844898713,-0.340119238678,-0.887594995689,-0.288569797374
8800000000.0,-0.889924187629,-0.285334525471,0.108481937103,-0.337521122852,0.108481937103,-0.337521122852,-0.889924187629,-0.285334525471
8900000000.0,-0.892186393284,-0.28213811495,0.106185474853,-0.334963245653,0.106185474853,-0.334963245653,-0.892186393284,-0.28213811495
9000000000.0,-0.894384003279,-0.278980076662,0.103953117882,-0.33244513107,0.103953117882,-0.33244513107,-0.894384003279,-0.278980076662
9100000000.0,-0.896519307812,-0.275859907791,0.10178257249,-0.329966289526,0.10178257249,-0.329966289526,-0.896519307812,-0.275859907791
9200000000.0,-0.898594501316,-0.27277709419,0.0996716406935,-0.327526220216,0.0996716406935,-0.327526220216,-0.898594501316,-0.27277709419
9300000000.0,-0.900611686884,-0.269731112493,0.0976182158047,-0.325124413216,0.0976182158047,-0.325124413216,-0.900611686884,-0.269731112493
9400000000.0,-0.902572880483,-0.266721432012,0.0956202782089,-0.322760351388,0.0956202782089,-0.322760351388,-0.902572880483,-0.266721432012
9500000000.0,-0.904480014973,-0.263747516456,0.0936758913536,-0.320433512095,0.0936758913536,-0.320433512095,-0.904480014973,-0.263747516456
9600000000.0,-0.906334943916,-0.260808825469,0.0917831979293,-0.31814336875,0.0917831979293,-0.31814336875,-0.906334943916,-0.260808825469
9700000000.0,-0.908139445217,-0.257904816021,0.0899404162367,-0.315889392199,0.0899404162367,-0.315889392199,-0.908139445217,-0.257904816021
9800000000.0,-0.909895224574,-0.255034943652,0.0881458367302,-0.313671051977,0.0881458367302,-0.313671051977,-0.909895224574,-0.255034943652
9900000000.0,-0.911603918768,-0.252198663589,0.086397818729,-0.311487817417,0.086397818729,-0.311487817417,-0.911603918768,-0.252198663589
10000000000.0,-0.913267098791,-0.249395431744,0.0846947872894,-0.309339158659,0.0846947872894,-0.309339158659,-0.913267098791,-0.249395431744
