freq (GHz),S11_real,S11_imag,S21_real,S21_imag,S12_real,S12_imag,S22_real,S22_imag
100000000.0,0.00128003500875,-0.000575836156001,0.998706866453,-0.00348294922566,0.998706866453,-0.00348294922566,0.00128003500875,-0.000575836156001
200000000.0,0.00128071225419,-0.00115169846362,0.998677609444,-0.00696582829076,0.998677609444,-0.00696582829076,0.00128071225419,-0.00115169846362
300000000.0,0.00127513321569,-0.00172754910953,0.998638127075,-0.010448631261,0.998638127075,-0.010448631261,0.00127513321569,-0.00172754910953
400000000.0,0.00126440906084,-0.00230336082398,0.99858730781,-0.0139313341221,0.99858730781,-0.0139313341221,0.00126440906084,-0.00230336082398
500000000.0,0.0012489671676,-0.0028791080935,0.998524724013,-0.0174139072931,0.998524724013,-0.0174139072931,0.0012489671676,-0.0028791080935
600000000.0,0.00122902531657,-0.00345476590168,0.998450157795,-0.0208963181948,0.998450157795,-0.0208963181948,0.00122902531657,-0.00345476590168
700000000.0,0.00120471215389,-0.0040303093433,0.998363480581,-0.0243785323056,0.998363480581,-0.0243785323056,0.00120471215389,-0.0040303093433
800000000.0,0.00117611112994,-0.00460571347601,0.998264609192,-0.0278605137107,0.998264609192,-0.0278605137107,0.00117611112994,-0.00460571347601
900000000.0,0.00114328005271,-0.00518095325764,0.99815348631,-0.0313422254299,0.99815348631,-0.0313422254299,0.00114328005271,-0.00518095325764
1000000000.0,0.00110626099445,-0.00575600351946,0.998030070587,-0.0348236296322,0.998030070587,-0.0348236296322,0.00110626099445,-0.00575600351946
1100000000.0,0.00106508579661,-0.00633083895621,0.997894331154,-0.0383046877837,0.997894331154,-0.0383046877837,0.00106508579661,-0.00633083895621
1200000000.0,0.00101977934923,-0.00690543412424,0.997746244351,-0.0417853607563,0.997746244351,-0.0417853607563,0.00101977934923,-0.00690543412424
1300000000.0,0.000970361653873,-0.00747976344382,0.997585791675,-0.0452656089094,0.997585791675,-0.0452656089094,0.000970361653873,-0.00747976344382
1400000000.0,0.000916849179564,-0.00805380120347,0.997412958436,-0.0487453921544,0.997412958436,-0.0487453921544,0.000916849179564,-0.00805380120347
1500000000.0,0.000859255786948,-0.00862752156551,0.997227732835,-0.052224670005,0.997227732835,-0.052224670005,0.000859255786948,-0.00862752156551
1600000000.0,0.000797593377545,-0.00920089857187,0.997030105329,-0.0557034016192,0.997030105329,-0.0557034016192,0.000797593377545,-0.00920089857187
1700000000.0,0.000731872361909,-0.00977390615005,0.996820068165,-0.0591815458339,0.996820068165,-0.0591815458339,0.000731872361908,-0.00977390615005
1800000000.0,0.000662102004825,-0.0103465181192,0.996597615045,-0.0626590611938,0.996597615045,-0.0626590611938,0.000662102004825,-0.0103465181192
1900000000.0,0.000588290684893,-0.0109187081958,0.996362740866,-0.0661359059765,0.996362740866,-0.0661359059765,0.000588290684893,-0.0109187081958
2000000000.0,0.000510446093098,-0.0114904499993,0.996115441536,-0.0696120382137,0.996115441536,-0.0696120382137,0.000510446093098,-0.0114904499993
2100000000.0,0.000428575387087,-0.0120617170578,0.995855713816,-0.0730874157104,0.995855713816,-0.0730874157104,0.000428575387087,-0.0120617170578
2200000000.0,0.000342685312656,-0.0126324828126,0.995583555211,-0.0765619960609,0.995583555211,-0.0765619960609,0.000342685312656,-0.0126324828126
2300000000.0,0.000252782300642,-0.0132027206241,0.995298963869,-0.0800357366637,0.995298963869,-0.0800357366637,0.000252782300642,-0.0132027206241
2400000000.0,0.000158872545034,-0.0137724037757,0.995001938518,-0.083508594735,0.995001938518,-0.083508594735,0.000158872545034,-0.0137724037757
2500000000.0,6.09620666308e-05,-0.0143415054791,0.994692478396,-0.0869805273197,0.994692478396,-0.0869805273197,6.09620666308e-05,-0.0143415054791
2600000000.0,-4.09432346332e-05,-0.0149099988783,0.99437058321,-0.0904514913032,0.99437058321,-0.0904514913032,-4.09432346329e-05,-0.0149099988783
2700000000.0,-0.000146837536273,-0.015477857054,0.994036253089,-0.0939214434202,0.994036253089,-0.0939214434202,-0.000146837536273,-0.015477857054
2800000000.0,-0.000256715056967,-0.0160450530279,0.993689488561,-0.0973903402646,0.993689488561,-0.0973903402646,-0.000256715056967,-0.0160450530279
2900000000.0,-0.000370570025991,-0.0166115597664,0.993330290514,-0.100858138297,0.993330290514,-0.100858138297,-0.000370570025992,-0.0166115597664
3000000000.0,-0.000488396657308,-0.0171773501847,0.992958660184,-0.104324793854,0.992958660184,-0.104324793854,-0.000488396657307,-0.0171773501847
3100000000.0,-0.000610189127448,-0.0177423971503,0.992574599128,-0.107790263151,0.992574599128,-0.107790263151,-0.000610189127448,-0.0177423971503
3200000000.0,-0.00073594155654,-0.018306673487,0.992178109211,-0.111254502297,0.992178109211,-0.111254502297,-0.00073594155654,-0.018306673487
3300000000.0,-0.000865647991925,-0.0188701519779,0.991769192592,-0.11471746729,0.991769192592,-0.11471746729,-0.000865647991925,-0.0188701519779
3400000000.0,-0.00099930239395,-0.0194328053695,0.991347851713,-0.118179114035,0.991347851713,-0.118179114035,-0.00099930239395,-0.0194328053695
3500000000.0,-0.00113689862358,-0.0199946063746,0.990914089288,-0.121639398338,0.990914089288,-0.121639398338,-0.00113689862358,-0.0199946063746
3600000000.0,-0.00127843043158,-0.0205555276756,0.990467908294,-0.12509827592,0.990467908294,-0.12509827592,-0.00127843043158,-0.0205555276756
3700000000.0,-0.00142389144893,-0.021115541928,0.990009311963,-0.128555702417,0.990009311963,-0.128555702417,-0.00142389144893,-0.021115541928
3800000000.0,-0.00157327517848,-0.0216746217633,0.989538303778,-0.132011633387,0.989538303778,-0.132011633387,-0.00157327517848,-0.0216746217633
3900000000.0,-0.00172657498745,-0.0222327397924,0.989054887468,-0.135466024315,0.989054887468,-0.135466024315,-0.00172657498745,-0.0222327397924
4000000000.0,-0.00188378410084,-0.022789868608,0.988559066998,-0.138918830614,0.988559066998,-0.138918830614,-0.00188378410084,-0.022789868608
4100000000.0,-0.0020448955955,-0.0233459807885,0.98805084657,-0.142370007633,0.98805084657,-0.142370007633,-0.0020448955955,-0.0233459807885
4200000000.0,-0.00220990239491,-0.0239010489,0.987530230619,-0.145819510659,0.987530230619,-0.145819510659,-0.00220990239491,-0.0239010489
4300000000.0,-0.00237879726438,-0.0244550454997,0.986997223805,-0.149267294923,0.986997223805,-0.149267294923,-0.00237879726438,-0.0244550454997
4400000000.0,-0.00255157280685,-0.0250079431389,0.986451831017,-0.152713315599,0.986451831017,-0.152713315599,-0.00255157280685,-0.0250079431389
4500000000.0,-0.00272822145907,-0.0255597143652,0.985894057365,-0.156157527814,0.985894057365,-0.156157527814,-0.00272822145907,-0.0255597143652
4600000000.0,-0.00290873548812,-0.0261103317258,0.985323908181,-0.159599886645,0.985323908181,-0.159599886645,-0.00290873548812,-0.0261103317258
4700000000.0,-0.00309310698833,-0.02665976777,0.984741389017,-0.163040347128,0.984741389017,-0.163040347128,-0.00309310698833,-0.02665976777
4800000000.0,-0.00328132787844,-0.0272079950518,0.98414650564,-0.166478864258,0.98414650564,-0.166478864258,-0.00328132787844,-0.0272079950518
4900000000.0,-0.00347338989907,-0.0277549861329,0.983539264035,-0.169915392992,0.983539264035,-0.169915392992,-0.00347338989906,-0.0277549861329
5000000000.0,-0.00366928461037,-0.0283007135848,0.982919670402,-0.173349888255,0.982919670402,-0.173349888255,-0.00366928461037,-0.0283007135848
5100000000.0,-0.00386900338998,-0.028845149992,0.982287731153,-0.17678230494,0.982287731153,-0.17678230494,-0.00386900338998,-0.028845149992
5200000000.0,-0.00407253743107,-0.029388267954,0.981643452913,-0.180212597911,0.981643452913,-0.180212597911,-0.00407253743107,-0.029388267954
5300000000.0,-0.00427987774065,-0.0299300400883,0.980986842519,-0.183640722009,0.980986842519,-0.183640722009,-0.00427987774065,-0.0299300400883
5400000000.0,-0.00449101513799,-0.0304704390327,0.980317907018,-0.187066632052,0.980317907018,-0.187066632052,-0.00449101513799,-0.0304704390327
5500000000.0,-0.00470594025321,-0.0310094374476,0.979636653667,-0.190490282838,0.979636653667,-0.190490282838,-0.00470594025321,-0.0310094374476
5600000000.0,-0.00492464352597,-0.031547008019,0.978943089932,-0.193911629148,0.978943089932,-0.193911629148,-0.00492464352597,-0.031547008019
5700000000.0,-0.00514711520437,-0.0320831234605,0.978237223489,-0.19733062575,0.978237223489,-0.19733062575,-0.00514711520437,-0.0320831234605
5800000000.0,-0.00537334534381,-0.0326177565159,0.97751906222,-0.200747227398,0.97751906222,-0.200747227398,-0.00537334534381,-0.0326177565159
5900000000.0,-0.00560332380613,-0.0331508799615,0.976788614216,-0.204161388839,0.976788614216,-0.204161388839,-0.00560332380613,-0.0331508799615
6000000000.0,-0.00583704025874,-0.0336824666086,0.976045887774,-0.207573064814,0.976045887774,-0.207573064814,-0.00583704025874,-0.0336824666086
6100000000.0,-0.00607448417383,-0.034212489306,0.975290891398,-0.210982210056,0.975290891398,-0.210982210056,-0.00607448417383,-0.034212489306
6200000000.0,-0.00631564482776,-0.0347409209419,0.974523633798,-0.214388779301,0.974523633798,-0.214388779301,-0.00631564482776,-0.0347409209419
6300000000.0,-0.00656051130042,-0.0352677344466,0.973744123889,-0.217792727283,0.973744123889,-0.217792727283,-0.00656051130042,-0.0352677344466
6400000000.0,-0.00680907247473,-0.035792902795,0.972952370793,-0.221194008738,0.972952370793,-0.221194008738,-0.00680907247473,-0.035792902795
6500000000.0,-0.0070613170362,-0.0363163990084,0.972148383835,-0.224592578409,0.972148383835,-0.224592578409,-0.0070613170362,-0.0363163990084
6600000000.0,-0.00731723347253,-0.0368381961569,0.971332172545,-0.227988391045,0.971332172545,-0.227988391045,-0.00731723347253,-0.0368381961569
6700000000.0,-0.00757681007331,-0.037358267362,0.970503746658,-0.231381401407,0.970503746658,-0.231381401407,-0.00757681007331,-0.037358267362
6800000000.0,-0.00784003492972,-0.0378765857985,0.969663116112,-0.234771564265,0.969663116112,-0.234771564265,-0.00784003492972,-0.0378765857985
6900000000.0,-0.00810689593436,-0.038393124697,0.968810291049,-0.238158834404,0.968810291049,-0.238158834404,-0.00810689593436,-0.038393124697
7000000000.0,-0.00837738078108,-0.0389078573458,0.967945281815,-0.241543166626,0.967945281815,-0.241543166626,-0.00837738078108,-0.0389078573458
7100000000.0,-0.00865147696487,-0.0394207570935,0.967068098956,-0.24492451575,0.967068098956,-0.24492451575,-0.00865147696487,-0.0394207570935
7200000000.0,-0.00892917178181,-0.0399317973507,0.966178753224,-0.248302836616,0.966178753224,-0.248302836616,-0.00892917178181,-0.0399317973507
7300000000.0,-0.00921045232904,-0.0404409515927,0.96527725557,-0.251678084086,0.96527725557,-0.251678084086,-0.00921045232904,-0.0404409515927
7400000000.0,-0.00949530550481,-0.0409481933614,0.964363617149,-0.255050213045,0.964363617149,-0.255050213045,-0.00949530550481,-0.0409481933614
7500000000.0,-0.00978371800854,-0.0414534962673,0.963437849318,-0.258419178407,0.963437849318,-0.258419178407,-0.00978371800854,-0.0414534962673
7600000000.0,-0.0100756763409,-0.0419568339918,0.962499963631,-0.261784935112,0.962499963631,-0.261784935112,-0.0100756763409,-0.0419568339918
7700000000.0,-0.0103711668042,-0.0424581802896,0.961549971849,-0.265147438131,0.961549971849,-0.265147438131,-0.0103711668042,-0.0424581802896
7800000000.0,-0.010670175502,-0.0429575089901,0.960587885928,-0.268506642468,0.960587885928,-0.268506642468,-0.010670175502,-0.0429575089901
7900000000.0,-0.01097268834,-0.0434547940003,0.959613718026,-0.27186250316,0.959613718026,-0.27186250316,-0.01097268834,-0.0434547940003
8000000000.0,-0.011278691026,-0.0439500093062,0.958627480502,-0.275214975279,0.958627480502,-0.275214975279,-0.011278691026,-0.0439500093062
8100000000.0,-0.0115881690701,-0.0444431289753,0.957629185911,-0.278564013937,0.957629185911,-0.278564013937,-0.0115881690701,-0.0444431289753
8200000000.0,-0.0119011077851,-0.0449341271586,0.956618847011,-0.281909574284,0.956618847011,-0.281909574284,-0.0119011077851,-0.0449341271586
8300000000.0,-0.012217492287,-0.0454229780922,0.955596476755,-0.285251611512,0.955596476755,-0.285251611512,-0.012217492287,-0.0454229780922
8400000000.0,-0.0125373074953,-0.0459096561002,0.954562088296,-0.288590080855,0.954562088296,-0.288590080855,-0.0125373074953,-0.0459096561002
8500000000.0,-0.0128605381331,-0.0463941355956,0.953515694983,-0.291924937595,0.953515694983,-0.291924937595,-0.0128605381331,-0.0463941355956
8600000000.0,-0.0131871687282,-0.0468763910834,0.952457310363,-0.295256137057,0.952457310363,-0.295256137057,-0.0131871687282,-0.0468763910834
8700000000.0,-0.013517183613,-0.0473563971619,0.951386948181,-0.298583634617,0.951386948181,-0.298583634617,-0.013517183613,-0.0473563971619
8800000000.0,-0.0138505669251,-0.0478341285247,0.950304622376,-0.301907385699,0.950304622376,-0.301907385699,-0.0138505669251,-0.0478341285247
8900000000.0,-0.0141873026083,-0.048309559963,0.949210347083,-0.305227345783,0.949210347083,-0.305227345783,-0.0141873026083,-0.048309559963
9000000000.0,-0.0145273744125,-0.0487826663672,0.948104136634,-0.308543470397,0.948104136634,-0.308543470397,-0.0145273744125,-0.0487826663672
9100000000.0,-0.0148707658946,-0.0492534227293,0.946986005555,-0.311855715128,0.946986005555,-0.311855715128,-0.0148707658946,-0.0492534227293
9200000000.0,-0.0152174604192,-0.0497218041442,0.945855968565,-0.315164035619,0.945855968565,-0.315164035619,-0.0152174604192,-0.0497218041442
9300000000.0,-0.0155674411589,-0.0501877858121,0.944714040578,-0.318468387572,0.944714040578,-0.318468387572,-0.0155674411589,-0.0501877858121
9400000000.0,-0.0159206910953,-0.0506513430402,0.943560236701,-0.321768726747,0.943560236701,-0.321768726747,-0.0159206910953,-0.0506513430402
9500000000.0,-0.0162771930197,-0.0511124512446,0.942394572233,-0.325065008969,0.942394572233,-0.325065008969,-0.0162771930197,-0.0511124512446
9600000000.0,-0.0166369295333,-0.0515710859522,0.941217062666,-0.328357190122,0.941217062666,-0.328357190122,-0.0166369295333,-0.0515710859522
9700000000.0,-0.0169998830484,-0.0520272228025,0.940027723684,-0.331645226159,0.940027723684,-0.331645226159,-0.0169998830484,-0.0520272228025
9800000000.0,-0.0173660357891,-0.0524808375496,0.938826571159,-0.334929073097,0.938826571159,-0.334929073097,-0.0173660357891,-0.0524808375496
9900000000.0,-0.0177353697919,-0.0529319060639,0.937613621157,-0.338208687022,0.937613621157,-0.338208687022,-0.0177353697919,-0.0529319060639
10000000000.0,-0.0181078669065,-0.0533804043339,0.936388889931,-0.341484024089,0.936388889931,-0.341484024089,-0.0181078669065,-0.0533804043339
