freq (GHz),S11_real,S11_imag,S21_real,S21_imag,S12_real,S12_imag,S22_real,S22_imag
100000000.0,0.00065186458113,-0.00123235824627,0.999336502906,-0.00251324680648,0.999336502906,-0.00251324680648,0.00065186458113,-0.00123235824627
200000000.0,0.000645182221372,-0.00246469986634,0.999318519936,-0.00502646382035,0.999318519936,-0.00502646382035,0.000645182221372,-0.00246469986634
300000000.0,0.000631154706807,-0.00369699605622,0.999293849271,-0.00753963597084,0.999293849271,-0.00753963597084,0.000631154706807,-0.00369699605622
400000000.0,0.000610350704248,-0.00492921852,0.999261922385,-0.0100527417649,0.999261922385,-0.0100527417649,0.000610350704248,-0.00492921852
500000000.0,0.000582989011618,-0.00616133841913,0.99922252084,-0.0125657572795,0.99922252084,-0.0125657572795,0.000582989011618,-0.00616133841913
600000000.0,0.000549181263645,-0.00739332641659,0.999175533608,-0.0150786571531,0.999175533608,-0.0150786571531,0.000549181263645,-0.00739332641659
700000000.0,0.00050899358141,-0.00862515275615,0.999120895446,-0.0175914150325,0.999120895446,-0.0175914150325,0.00050899358141,-0.00862515275615
800000000.0,0.000462469057525,-0.00985678732982,0.999058564424,-0.0201040038235,0.999058564424,-0.0201040038235,0.000462469057525,-0.00985678732982
900000000.0,0.000409637762053,-0.0110881997294,0.998988511933,-0.0226163958471,0.998988511933,-0.0226163958471,0.000409637762053,-0.0110881997294
1000000000.0,0.000350521812085,-0.0123193592877,0.998910717626,-0.0251285629465,0.998910717626,-0.0251285629465,0.000350521812085,-0.0123193592877
1100000000.0,0.000285138189023,-0.0135502351108,0.99882516661,-0.0276404765645,0.99882516661,-0.0276404765645,0.000285138189023,-0.0135502351108
1200000000.0,0.000213500417116,-0.0147807961044,0.998731847777,-0.0301521078007,0.998731847777,-0.0301521078007,0.000213500417116,-0.0147807961044
1300000000.0,0.000135619619549,-0.0160110109957,0.998630752751,-0.0326634274567,0.998630752751,-0.0326634274567,0.000135619619549,-0.0160110109957
1400000000.0,5.15052128023e-05,-0.0172408483518,0.998521875204,-0.0351744060721,0.998521875204,-0.0351744060721,5.15052128025e-05,-0.0172408483518
1500000000.0,-3.88346199761e-05,-0.0184702765951,0.998405210385,-0.0376850139537,0.998405210385,-0.0376850139537,-3.88346199759e-05,-0.0184702765951
1600000000.0,-0.000135392596241,-0.0196992640169,0.998280754795,-0.0401952211999,0.998280754795,-0.0401952211999,-0.000135392596241,-0.0196992640169
1700000000.0,-0.000238162094033,-0.0209277787892,0.99814850595,-0.0427049977213,0.99814850595,-0.0427049977213,-0.000238162094033,-0.0209277787892
1800000000.0,-0.000347136974892,-0.0221557889754,0.998008462208,-0.0452143132588,0.998008462208,-0.0452143132588,-0.000347136974892,-0.0221557889754
1900000000.0,-0.000462311450622,-0.0233832625392,0.997860622641,-0.0477231373985,0.997860622641,-0.0477231373985,-0.000462311450622,-0.0233832625392
2000000000.0,-0.00058367998129,-0.0246101673532,0.997704986937,-0.0502314395857,0.997704986937,-0.0502314395857,-0.00058367998129,-0.0246101673532
2100000000.0,-0.000711237195928,-0.0258364712069,0.997541555318,-0.0527391891366,0.997541555318,-0.0527391891366,-0.000711237195928,-0.0258364712069
2200000000.0,-0.000844977830035,-0.0270621418133,0.997370328491,-0.0552463552495,0.997370328491,-0.0552463552495,-0.000844977830035,-0.0270621418133
2300000000.0,-0.000984896675698,-0.0282871468155,0.997191307593,-0.057752907014,0.997191307593,-0.057752907014,-0.000984896675698,-0.0282871468155
2400000000.0,-0.00113098854134,-0.0295114537926,0.997004494153,-0.0602588134203,0.997004494153,-0.0602588134203,-0.00113098854134,-0.0295114537926
2500000000.0,-0.00128324821892,-0.0307350302656,0.99680989007,-0.0627640433672,0.99680989007,-0.0627640433672,-0.00128324821892,-0.0307350302656
2600000000.0,-0.00144167045687,-0.0319578437023,0.996607497577,-0.0652685656693,0.996607497577,-0.0652685656693,-0.00144167045687,-0.0319578437023
2700000000.0,-0.00160624993778,-0.0331798615226,0.99639731923,-0.0677723490645,0.99639731923,-0.0677723490645,-0.00160624993778,-0.0331798615226
2800000000.0,-0.00177698125953,-0.0344010511027,0.996179357887,-0.0702753622197,0.996179357887,-0.0702753622197,-0.00177698125953,-0.0344010511027
2900000000.0,-0.00195385891961,-0.0356213797801,0.995953616692,-0.0727775737376,0.995953616692,-0.0727775737376,-0.00195385891961,-0.0356213797801
3000000000.0,-0.00213687730164,-0.0368408148575,0.99572009907,-0.0752789521619,0.99572009907,-0.0752789521619,-0.00213687730164,-0.0368408148575
3100000000.0,-0.00232603066397,-0.0380593236066,0.995478808711,-0.0777794659827,0.995478808711,-0.0777794659827,-0.00232603066397,-0.0380593236066
3200000000.0,-0.00252131312988,-0.0392768732729,0.995229749564,-0.0802790836418,0.995229749564,-0.0802790836418,-0.00252131312988,-0.0392768732729
3300000000.0,-0.00272271867913,-0.0404934310782,0.99497292583,-0.0827777735372,0.99497292583,-0.0827777735372,-0.00272271867913,-0.0404934310782
3400000000.0,-0.00293024114061,-0.0417089642255,0.994708341955,-0.0852755040281,0.994708341955,-0.0852755040281,-0.00293024114061,-0.0417089642255
3500000000.0,-0.00314387418598,-0.0429234399014,0.994436002627,-0.0877722434387,0.994436002627,-0.0877722434387,-0.00314387418598,-0.0429234399014
3600000000.0,-0.00336361132411,-0.04413682528,0.99415591277,-0.0902679600631,0.99415591277,-0.0902679600631,-0.00336361132411,-0.04413682528
3700000000.0,-0.00358944589616,-0.0453490875265,0.993868077538,-0.092762622169,0.993868077538,-0.092762622169,-0.00358944589616,-0.0453490875265
3800000000.0,-0.00382137107134,-0.0465601937995,0.993572502316,-0.0952561980016,0.993572502316,-0.0952561980016,-0.00382137107134,-0.0465601937995
3900000000.0,-0.00405937984312,-0.0477701112551,0.993269192715,-0.0977486557872,0.993269192715,-0.0977486557872,-0.00405937984312,-0.0477701112551
4000000000.0,-0.00430346502585,-0.0489788070492,0.992958154567,-0.100239963737,0.992958154567,-0.100239963737,-0.00430346502585,-0.0489788070492
4100000000.0,-0.00455361925185,-0.0501862483408,0.992639393927,-0.102730090052,0.992639393927,-0.102730090052,-0.00455361925185,-0.0501862483408
4200000000.0,-0.00480983496876,-0.051392402295,0.992312917068,-0.105219002923,0.992312917068,-0.105219002923,-0.00480983496876,-0.051392402295
4300000000.0,-0.00507210443721,-0.0525972360857,0.991978730481,-0.107706670538,0.991978730481,-0.107706670538,-0.00507210443721,-0.0525972360857
4400000000.0,-0.00534041972878,-0.0538007168982,0.991636840872,-0.110193061082,0.991636840872,-0.110193061082,-0.00534041972878,-0.0538007168982
4500000000.0,-0.00561477272414,-0.0550028119325,0.991287255159,-0.112678142742,0.991287255159,-0.112678142742,-0.00561477272414,-0.0550028119325
4600000000.0,-0.00589515511144,-0.0562034884053,0.990929980475,-0.115161883712,0.990929980475,-0.115161883712,-0.00589515511144,-0.0562034884053
4700000000.0,-0.00618155838486,-0.0574027135533,0.990565024165,-0.11764425219,0.990565024165,-0.11764425219,-0.00618155838486,-0.0574027135533
4800000000.0,-0.00647397384332,-0.0586004546354,0.990192393782,-0.120125216388,0.990192393782,-0.120125216388,-0.00647397384332,-0.0586004546354
4900000000.0,-0.00677239258938,-0.0597966789354,0.98981209709,-0.122604744529,0.98981209709,-0.122604744529,-0.00677239258938,-0.0597966789354
5000000000.0,-0.0070768055282,-0.0609913537645,0.98942414206,-0.125082804857,0.98942414206,-0.125082804857,-0.0070768055282,-0.0609913537645
5100000000.0,-0.00738720336673,-0.062184446464,0.98902853687,-0.127559365629,0.98902853687,-0.127559365629,-0.00738720336673,-0.062184446464
5200000000.0,-0.00770357661291,-0.0633759244074,0.988625289908,-0.13003439513,0.988625289908,-0.13003439513,-0.00770357661291,-0.0633759244074
5300000000.0,-0.00802591557501,-0.0645657550032,0.988214409763,-0.132507861666,0.988214409763,-0.132507861666,-0.00802591557501,-0.0645657550032
5400000000.0,-0.00835421036111,-0.0657539056971,0.987795905232,-0.134979733573,0.987795905232,-0.134979733573,-0.00835421036111,-0.0657539056971
5500000000.0,-0.00868845087861,-0.0669403439744,0.987369785316,-0.137449979214,0.987369785316,-0.137449979214,-0.00868845087861,-0.0669403439744
5600000000.0,-0.00902862683381,-0.0681250373624,0.986936059217,-0.139918566988,0.986936059217,-0.139918566988,-0.00902862683381,-0.0681250373624
5700000000.0,-0.00937472773163,-0.0693079534328,0.986494736344,-0.142385465326,0.986494736344,-0.142385465326,-0.00937472773163,-0.0693079534328
5800000000.0,-0.00972674287536,-0.0704890598037,0.986045826304,-0.1448506427,0.986045826304,-0.1448506427,-0.00972674287536,-0.0704890598037
5900000000.0,-0.0100846613665,-0.0716683241424,0.985589338907,-0.14731406762,0.985589338907,-0.14731406762,-0.0100846613665,-0.0716683241424
6000000000.0,-0.0104484721045,-0.0728457141671,0.985125284165,-0.149775708639,0.985125284165,-0.149775708639,-0.0104484721045,-0.0728457141671
6100000000.0,-0.0108181637869,-0.0740211976495,0.984653672289,-0.152235534354,0.984653672289,-0.152235534354,-0.0108181637869,-0.0740211976495
6200000000.0,-0.0111937249093,-0.0751947424169,0.984174513688,-0.154693513412,0.984174513688,-0.154693513412,-0.0111937249093,-0.0751947424169
6300000000.0,-0.0115751437652,-0.0763663163542,0.983687818973,-0.157149614506,0.983687818973,-0.157149614506,-0.0115751437652,-0.0763663163542
6400000000.0,-0.0119624084462,-0.0775358874065,0.983193598949,-0.159603806385,0.983193598949,-0.159603806385,-0.0119624084462,-0.0775358874065
6500000000.0,-0.0123555068425,-0.0787034235808,0.982691864622,-0.162056057849,0.982691864622,-0.162056057849,-0.0123555068425,-0.0787034235808
6600000000.0,-0.0127544266422,-0.0798688929485,0.982182627194,-0.164506337756,0.982182627194,-0.164506337756,-0.0127544266422,-0.0798688929485
6700000000.0,-0.0131591553327,-0.0810322636471,0.981665898061,-0.166954615023,0.981665898061,-0.166954615023,-0.0131591553327,-0.0810322636471
6800000000.0,-0.0135696801998,-0.0821935038828,0.981141688817,-0.169400858627,0.981141688817,-0.169400858627,-0.0135696801998,-0.0821935038828
6900000000.0,-0.013985988329,-0.0833525819321,0.980610011249,-0.17184503761,0.980610011249,-0.17184503761,-0.013985988329,-0.0833525819321
7000000000.0,-0.0144080666049,-0.0845094661441,0.980070877339,-0.174287121077,0.980070877339,-0.174287121077,-0.0144080666049,-0.0845094661441
7100000000.0,-0.0148359017126,-0.0856641249425,0.979524299262,-0.176727078201,0.979524299262,-0.176727078201,-0.0148359017126,-0.0856641249425
7200000000.0,-0.0152694801372,-0.0868165268277,0.978970289384,-0.179164878227,0.978970289384,-0.179164878227,-0.0152694801372,-0.0868165268277
7300000000.0,-0.0157087881648,-0.0879666403784,0.978408860266,-0.181600490468,0.978408860266,-0.181600490468,-0.0157087881648,-0.0879666403784
7400000000.0,-0.0161538118828,-0.0891144342542,0.977840024658,-0.184033884314,0.977840024658,-0.184033884314,-0.0161538118828,-0.0891144342542
7500000000.0,-0.0166045371802,-0.0902598771973,0.9772637955,-0.186465029229,0.9772637955,-0.186465029229,-0.0166045371802,-0.0902598771973
7600000000.0,-0.0170609497486,-0.091402938034,0.976680185922,-0.188893894754,0.976680185922,-0.188893894754,-0.0170609497486,-0.091402938034
7700000000.0,-0.0175230350824,-0.0925435856775,0.976089209244,-0.191320450513,0.976089209244,-0.191320450513,-0.0175230350824,-0.0925435856775
7800000000.0,-0.0179907784795,-0.093681789129,0.975490878972,-0.193744666208,0.975490878972,-0.193744666208,-0.0179907784795,-0.093681789129
7900000000.0,-0.018464165042,-0.0948175174802,0.9748852088,-0.196166511627,0.9748852088,-0.196166511627,-0.018464165042,-0.0948175174802
8000000000.0,-0.0189431796767,-0.0959507399149,0.974272212608,-0.198585956645,0.974272212608,-0.198585956645,-0.0189431796767,-0.0959507399149
8100000000.0,-0.0194278070958,-0.0970814257107,0.973651904462,-0.201002971221,0.973651904462,-0.201002971221,-0.0194278070958,-0.0970814257107
8200000000.0,-0.0199180318179,-0.0982095442414,0.973024298613,-0.203417525407,0.973024298613,-0.203417525407,-0.0199180318179,-0.0982095442414
8300000000.0,-0.0204138381682,-0.0993350649781,0.972389409493,-0.205829589344,0.972389409493,-0.205829589344,-0.0204138381682,-0.0993350649781
8400000000.0,-0.0209152102796,-0.100457957492,0.97174725172,-0.208239133268,0.97174725172,-0.208239133268,-0.0209152102796,-0.100457957492
8500000000.0,-0.0214221320935,-0.101578191454,0.971097840092,-0.21064612751,0.971097840092,-0.21064612751,-0.0214221320935,-0.101578191454
8600000000.0,-0.0219345873603,-0.102695736641,0.970441189589,-0.213050542497,0.970441189589,-0.213050542497,-0.0219345873603,-0.102695736641
8700000000.0,-0.0224525596407,-0.103810562932,0.969777315371,-0.215452348756,0.969777315371,-0.215452348756,-0.0224525596407,-0.103810562932
8800000000.0,-0.0229760323061,-0.104922640314,0.969106232775,-0.217851516913,0.969106232775,-0.217851516913,-0.0229760323061,-0.104922640314
8900000000.0,-0.0235049885394,-0.106031938882,0.968427957319,-0.220248017699,0.968427957319,-0.220248017699,-0.0235049885394,-0.106031938882
9000000000.0,-0.0240394113364,-0.107138428841,0.967742504697,-0.222641821947,0.967742504697,-0.222641821947,-0.0240394113364,-0.107138428841
9100000000.0,-0.0245792835064,-0.108242080508,0.967049890778,-0.225032900596,0.967049890778,-0.225032900596,-0.0245792835064,-0.108242080508
9200000000.0,-0.0251245876729,-0.109342864313,0.966350131608,-0.227421224694,0.966350131608,-0.227421224694,-0.0251245876729,-0.109342864313
9300000000.0,-0.0256753062749,-0.110440750802,0.965643243406,-0.229806765397,0.965643243406,-0.229806765397,-0.0256753062749,-0.110440750802
9400000000.0,-0.0262314215677,-0.111535710637,0.964929242563,-0.232189493973,0.964929242563,-0.232189493973,-0.0262314215677,-0.111535710637
9500000000.0,-0.026792915624,-0.112627714598,0.964208145644,-0.234569381802,0.964208145644,-0.234569381802,-0.026792915624,-0.112627714598
9600000000.0,-0.0273597703347,-0.113716733588,0.963479969384,-0.236946400378,0.963479969384,-0.236946400378,-0.0273597703347,-0.113716733588
9700000000.0,-0.0279319674101,-0.114802738627,0.962744730688,-0.239320521312,0.962744730688,-0.239320521312,-0.0279319674101,-0.114802738627
9800000000.0,-0.0285094883808,-0.115885700862,0.962002446629,-0.241691716333,0.962002446629,-0.241691716333,-0.0285094883808,-0.115885700862
9900000000.0,-0.0290923145989,-0.116965591563,0.961253134449,-0.244059957287,0.961253134449,-0.244059957287,-0.0290923145989,-0.116965591563
10000000000.0,-0.0296804272389,-0.118042382127,0.960496811553,-0.246425216143,0.960496811553,-0.246425216143,-0.0296804272389,-0.118042382127
