freq (GHz),S11_real,S11_imag,S21_real,S21_imag,S12_real,S12_imag,S22_real,S22_imag
100000000.0,0.000730757315731,-0.00468669815847,0.999184506879,-0.00732200279178,0.999184506879,-0.00732200279178,0.000730757315731,-0.00468669815847
200000000.0,0.000627201797128,-0.00937220393978,0.999060097789,-0.0146428127915,0.999060097789,-0.0146428127915,0.000627201797128,-0.00937220393978
300000000.0,0.000453705753675,-0.0140553627821,0.9988614704,-0.0219613317668,0.9988614704,-0.0219613317668,0.000453705753676,-0.0140553627821
400000000.0,0.000210994882064,-0.0187350127325,0.998588016687,-0.0292764353745,0.998588016687,-0.0292764353745,0.000210994882064,-0.0187350127325
500000000.0,-0.000100590877936,-0.0234099873576,0.998239562972,-0.036586989246,0.998239562972,-0.036586989246,-0.000100590877936,-0.0234099873576
600000000.0,-0.000480812561859,-0.028079118195,0.997816085618,-0.0438918540757,0.997816085618,-0.0438918540757,-0.000480812561859,-0.028079118195
700000000.0,-0.000929459812296,-0.0327412364736,0.99731763892,-0.0511898884068,0.99731763892,-0.0511898884068,-0.000929459812296,-0.0327412364736
800000000.0,-0.00144632449056,-0.0373951744597,0.996744328826,-0.0584799505245,0.996744328826,-0.0584799505245,-0.00144632449056,-0.0373951744597
900000000.0,-0.00203118896483,-0.0420397665922,0.996096301229,-0.0657608999143,0.996096301229,-0.0657608999143,-0.00203118896483,-0.0420397665922
1000000000.0,-0.00268382022413,-0.0466738504887,0.995373735999,-0.073031598476,0.995373735999,-0.073031598476,-0.00268382022413,-0.0466738504887
1100000000.0,-0.00340396666699,-0.0512962678665,0.994576843614,-0.0802909115878,0.994576843614,-0.0802909115878,-0.00340396666699,-0.0512962678665
1200000000.0,-0.0041913562564,-0.0559058654035,0.993705863088,-0.0875377090697,0.993705863088,-0.0875377090697,-0.0041913562564,-0.0559058654035
1300000000.0,-0.00504569543355,-0.0605014955531,0.992761060597,-0.0947708660764,0.992761060597,-0.0947708660764,-0.00504569543355,-0.0605014955531
1400000000.0,-0.00596666848313,-0.0650820173258,0.991742728501,-0.101989263938,0.991742728501,-0.101989263938,-0.00596666848313,-0.0650820173258
1500000000.0,-0.00695393718376,-0.0696462970407,0.990651184592,-0.109191790956,0.990651184592,-0.109191790956,-0.00695393718376,-0.0696462970407
1600000000.0,-0.00800714064824,-0.0741932090519,0.989486771486,-0.116377343172,0.989486771486,-0.116377343172,-0.00800714064824,-0.0741932090519
1700000000.0,-0.00912589529646,-0.0787216364543,0.988249856095,-0.123544825101,0.988249856095,-0.123544825101,-0.00912589529646,-0.0787216364543
1800000000.0,-0.0103097949251,-0.0832304717673,0.986940829151,-0.13069315044,0.986940829151,-0.13069315044,-0.0103097949251,-0.0832304717673
1900000000.0,-0.0115584108509,-0.0877186176007,0.985560104755,-0.137821242757,0.985560104755,-0.137821242757,-0.0115584108509,-0.0877186176007
2000000000.0,-0.0128712921117,-0.0921849873017,0.984108119944,-0.144928036157,0.984108119944,-0.144928036157,-0.0128712921117,-0.0921849873017
2100000000.0,-0.0142479657153,-0.0966285055839,0.982585334261,-0.152012475925,0.982585334261,-0.152012475925,-0.0142479657153,-0.0966285055839
2200000000.0,-0.0156879369269,-0.101048109139,0.980992229327,-0.15907351915,0.980992229327,-0.15907351915,-0.0156879369269,-0.101048109139
2300000000.0,-0.0171906895911,-0.105442747229,0.979329308405,-0.166110135332,0.979329308405,-0.166110135332,-0.0171906895911,-0.105442747229
2400000000.0,-0.0187556864828,-0.109811382265,0.97759709596,-0.173121306968,0.97759709596,-0.173121306968,-0.0187556864828,-0.109811382265
2500000000.0,-0.0203823696852,-0.114152990363,0.975796137205,-0.180106030119,0.975796137205,-0.180106030119,-0.0203823696852,-0.114152990363
2600000000.0,-0.0220701609906,-0.118466561881,0.973926997644,-0.187063314955,0.973926997644,-0.187063314955,-0.0220701609906,-0.118466561881
2700000000.0,-0.0238184623225,-0.122751101948,0.971990262596,-0.193992186288,0.971990262596,-0.193992186288,-0.0238184623225,-0.122751101948
2800000000.0,-0.0256266561776,-0.12700563096,0.969986536716,-0.200891684076,0.969986536716,-0.200891684076,-0.0256266561776,-0.12700563096
2900000000.0,-0.0274941060859,-0.131229185066,0.967916443494,-0.207760863918,0.967916443494,-0.207760863918,-0.0274941060859,-0.131229185066
3000000000.0,-0.029420157086,-0.135420816634,0.965780624758,-0.21459879752,0.965780624758,-0.21459879752,-0.029420157086,-0.135420816634
3100000000.0,-0.0314041362166,-0.139579594697,0.96357974015,-0.221404573145,0.96357974015,-0.221404573145,-0.0314041362166,-0.139579594697
3200000000.0,-0.033445353022,-0.143704605377,0.961314466605,-0.228177296046,0.961314466605,-0.228177296046,-0.033445353022,-0.143704605377
3300000000.0,-0.0355431000691,-0.147794952294,0.958985497811,-0.234916088874,0.958985497811,-0.234916088874,-0.0355431000691,-0.147794952294
3400000000.0,-0.0376966534776,-0.15184975695,0.956593543666,-0.241620092067,0.956593543666,-0.241620092067,-0.0376966534776,-0.15184975695
3500000000.0,-0.0399052734596,-0.155868159094,0.954139329723,-0.248288464222,0.954139329723,-0.248288464222,-0.0399052734596,-0.155868159094
3600000000.0,-0.0421682048698,-0.159849317075,0.951623596627,-0.254920382438,0.951623596627,-0.254920382438,-0.0421682048698,-0.159849317075
3700000000.0,-0.0444846777637,-0.163792408157,0.949047099546,-0.26151504265,0.949047099546,-0.26151504265,-0.0444846777637,-0.163792408157
3800000000.0,-0.0468539079642,-0.167696628833,0.946410607598,-0.268071659931,0.946410607598,-0.268071659931,-0.0468539079642,-0.167696628833
3900000000.0,-0.0492750976345,-0.171561195106,0.943714903264,-0.274589468783,0.943714903264,-0.274589468783,-0.0492750976345,-0.171561195106
4000000000.0,-0.0517474358571,-0.17538534275,0.940960781805,-0.281067723397,0.940960781805,-0.281067723397,-0.0517474358571,-0.17538534275
4100000000.0,-0.0542700992186,-0.179168327558,0.93814905067,-0.287505697904,0.93814905067,-0.287505697904,-0.0542700992186,-0.179168327558
4200000000.0,-0.0568422523974,-0.182909425562,0.935280528899,-0.293902686591,0.935280528899,-0.293902686591,-0.0568422523974,-0.182909425562
4300000000.0,-0.059463048756,-0.186607933237,0.932356046531,-0.300258004114,0.932356046531,-0.300258004114,-0.059463048756,-0.186607933237
4400000000.0,-0.0621316309352,-0.190263167677,0.929376443997,-0.30657098567,0.929376443997,-0.30657098567,-0.0621316309352,-0.190263167677
4500000000.0,-0.0648471314507,-0.193874466764,0.926342571525,-0.312840987168,0.926342571525,-0.312840987168,-0.0648471314507,-0.193874466764
4600000000.0,-0.0676086732897,-0.197441189304,0.923255288533,-0.319067385364,0.923255288533,-0.319067385364,-0.0676086732897,-0.197441189304
4700000000.0,-0.0704153705088,-0.20096271515,0.920115463033,-0.325249577989,0.920115463033,-0.325249577989,-0.0704153705088,-0.20096271515
4800000000.0,-0.0732663288305,-0.204438445301,0.916923971025,-0.331386983844,0.916923971025,-0.331386983844,-0.0732663288305,-0.204438445301
4900000000.0,-0.0761606462389,-0.207867801986,0.913681695901,-0.337479042887,0.913681695901,-0.337479042887,-0.0761606462389,-0.207867801986
5000000000.0,-0.0790974135734,-0.211250228723,0.910389527847,-0.343525216292,0.910389527847,-0.343525216292,-0.0790974135734,-0.211250228723
5100000000.0,-0.0820757151194,-0.214585190367,0.907048363248,-0.349524986494,0.907048363248,-0.349524986494,-0.0820757151194,-0.214585190367
5200000000.0,-0.085094629196,-0.217872173127,0.903659104098,-0.355477857214,0.903659104098,-0.355477857214,-0.085094629196,-0.217872173127
5300000000.0,-0.0881532287392,-0.22111068458,0.900222657414,-0.361383353462,0.900222657414,-0.361383353462,-0.0881532287392,-0.22111068458
5400000000.0,-0.0912505818812,-0.224300253651,0.896739934651,-0.367241021526,0.896739934651,-0.367241021526,-0.0912505818812,-0.224300253651
5500000000.0,-0.0943857525235,-0.227440430587,0.893211851131,-0.373050428942,0.893211851131,-0.373050428942,-0.0943857525235,-0.227440430587
5600000000.0,-0.0975578009049,-0.230530786906,0.889639325468,-0.378811164445,0.889639325468,-0.378811164445,-0.0975578009049,-0.230530786906
5700000000.0,-0.100765784163,-0.233570915337,0.886023279004,-0.384522837906,0.886023279004,-0.384522837906,-0.100765784163,-0.233570915337
5800000000.0,-0.104008756887,-0.236560429735,0.882364635257,-0.390185080245,0.882364635257,-0.390185080245,-0.104008756887,-0.236560429735
5900000000.0,-0.107285771668,-0.239498964982,0.878664319363,-0.39579754334,0.878664319363,-0.39579754334,-0.107285771668,-0.239498964982
6000000000.0,-0.110595879633,-0.24238617688,0.874923257544,-0.40135989991,0.874923257544,-0.40135989991,-0.110595879633,-0.24238617688
6100000000.0,-0.113938130981,-0.245221742015,0.871142376568,-0.406871843384,0.871142376568,-0.406871843384,-0.113938130981,-0.245221742015
6200000000.0,-0.117311575499,-0.248005357618,0.867322603227,-0.412333087759,0.867322603227,-0.412333087759,-0.117311575499,-0.248005357618
6300000000.0,-0.120715263078,-0.250736741407,0.863464863825,-0.417743367443,0.863464863825,-0.417743367443,-0.120715263078,-0.250736741407
6400000000.0,-0.124148244214,-0.253415631414,0.859570083669,-0.42310243708,0.859570083669,-0.42310243708,-0.124148244214,-0.253415631414
6500000000.0,-0.127609570499,-0.256041785802,0.855639186576,-0.428410071367,0.855639186576,-0.428410071367,-0.127609570499,-0.256041785802
6600000000.0,-0.131098295109,-0.258614982665,0.851673094389,-0.433666064853,0.851673094389,-0.433666064853,-0.131098295109,-0.258614982665
6700000000.0,-0.134613473266,-0.26113501982,0.847672726501,-0.438870231731,0.847672726501,-0.438870231731,-0.134613473266,-0.26113501982
6800000000.0,-0.138154162706,-0.263601714585,0.843638999396,-0.444022405612,0.843638999396,-0.444022405612,-0.138154162706,-0.263601714585
6900000000.0,-0.141719424126,-0.266014903546,0.839572826195,-0.449122439293,0.839572826195,-0.449122439293,-0.141719424126,-0.266014903546
7000000000.0,-0.145308321617,-0.268374442313,0.835475116215,-0.454170204515,0.835475116215,-0.454170204515,-0.145308321617,-0.268374442313
7100000000.0,-0.148919923096,-0.270680205265,0.831346774544,-0.459165591702,0.831346774544,-0.459165591702,-0.148919923096,-0.270680205265
7200000000.0,-0.152553300716,-0.27293208529,0.827188701624,-0.464108509701,0.827188701624,-0.464108509701,-0.152553300716,-0.27293208529
7300000000.0,-0.156207531268,-0.275129993507,0.823001792846,-0.468998885508,0.823001792846,-0.468998885508,-0.156207531268,-0.275129993507
7400000000.0,-0.159881696571,-0.277273858991,0.818786938157,-0.473836663981,0.818786938157,-0.473836663981,-0.159881696571,-0.277273858991
7500000000.0,-0.163574883847,-0.279363628478,0.814545021687,-0.478621807555,0.814545021687,-0.478621807555,-0.163574883847,-0.279363628478
7600000000.0,-0.167286186088,-0.281399266073,0.810276921373,-0.483354295942,0.810276921373,-0.483354295942,-0.167286186088,-0.281399266073
7700000000.0,-0.171014702405,-0.283380752939,0.805983508613,-0.488034125822,0.805983508613,-0.488034125822,-0.171014702405,-0.283380752939
7800000000.0,-0.174759538366,-0.285308086997,0.80166564792,-0.492661310538,0.80166564792,-0.492661310538,-0.174759538366,-0.285308086997
7900000000.0,-0.178519806327,-0.287181282599,0.797324196593,-0.497235879772,0.797324196593,-0.497235879772,-0.178519806327,-0.287181282599
8000000000.0,-0.182294625742,-0.289000370214,0.792960004406,-0.501757879224,0.792960004406,-0.501757879224,-0.182294625742,-0.289000370214
8100000000.0,-0.186083123461,-0.290765396094,0.788573913297,-0.506227370283,0.788573913297,-0.506227370283,-0.186083123461,-0.290765396094
8200000000.0,-0.189884434025,-0.292476421949,0.784166757085,-0.510644429695,0.784166757085,-0.510644429695,-0.189884434025,-0.292476421949
8300000000.0,-0.193697699935,-0.294133524608,0.779739361188,-0.515009149222,0.779739361188,-0.515009149222,-0.193697699935,-0.294133524608
8400000000.0,-0.197522071916,-0.29573679568,0.775292542356,-0.519321635309,0.775292542356,-0.519321635309,-0.197522071916,-0.29573679568
8500000000.0,-0.201356709169,-0.297286341211,0.770827108423,-0.523582008729,0.770827108423,-0.523582008729,-0.201356709169,-0.297286341211
8600000000.0,-0.205200779606,-0.298782281342,0.766343858066,-0.527790404245,0.766343858066,-0.527790404245,-0.205200779606,-0.298782281342
8700000000.0,-0.209053460075,-0.300224749959,0.761843580573,-0.531946970259,0.761843580573,-0.531946970259,-0.209053460075,-0.300224749959
8800000000.0,-0.212913936575,-0.301613894346,0.757327055632,-0.536051868458,0.757327055632,-0.536051868458,-0.212913936575,-0.301613894346
8900000000.0,-0.216781404454,-0.30294987483,0.752795053127,-0.540105273465,0.752795053127,-0.540105273465,-0.216781404454,-0.30294987483
9000000000.0,-0.220655068598,-0.304232864438,0.748248332945,-0.544107372483,0.748248332945,-0.544107372483,-0.220655068598,-0.304232864438
9100000000.0,-0.224534143607,-0.305463048537,0.743687644798,-0.548058364944,0.743687644798,-0.548058364944,-0.224534143607,-0.305463048537
9200000000.0,-0.228417853963,-0.306640624487,0.739113728055,-0.551958462152,0.739113728055,-0.551958462152,-0.228417853963,-0.306640624487
9300000000.0,-0.232305434176,-0.307765801285,0.734527311586,-0.55580788693,0.734527311586,-0.55580788693,-0.232305434176,-0.307765801285
9400000000.0,-0.236196128933,-0.308838799218,0.729929113617,-0.559606873267,0.729929113617,-0.559606873267,-0.236196128933,-0.308838799218
9500000000.0,-0.240089193225,-0.309859849509,0.725319841596,-0.563355665965,0.725319841596,-0.563355665965,-0.240089193225,-0.309859849509
9600000000.0,-0.243983892468,-0.310829193969,0.720700192075,-0.567054520285,0.720700192075,-0.567054520285,-0.243983892468,-0.310829193969
9700000000.0,-0.247879502607,-0.311747084649,0.716070850588,-0.570703701599,0.716070850588,-0.570703701599,-0.247879502607,-0.311747084649
9800000000.0,-0.251775310223,-0.312613783493,0.711432491562,-0.574303485043,0.711432491562,-0.574303485043,-0.251775310223,-0.312613783493
9900000000.0,-0.255670612611,-0.313429561996,0.706785778217,-0.577854155167,0.706785778217,-0.577854155167,-0.255670612611,-0.313429561996
10000000000.0,-0.259564717863,-0.314194700862,0.702131362489,-0.581356005592,0.702131362489,-0.581356005592,-0.259564717863,-0.314194700862
