freq (GHz),S11_real,S11_imag,S21_real,S21_imag,S12_real,S12_imag,S22_real,S22_imag
100000000.0,-9.64686957815e-05,-0.0154495984353,0.999575892721,-0.015808046665,0.999575892721,-0.015808046665,-9.64686957815e-05,-0.0154495984353
200000000.0,-0.000842963496301,-0.0308754108598,0.998826975718,-0.0315923143443,0.998826975718,-0.0315923143443,-0.000842963496301,-0.0308754108598
300000000.0,-0.0020754001672,-0.0462547376778,0.997592553502,-0.0473301094517,0.997592553502,-0.0473301094517,-0.0020754001672,-0.0462547376778
400000000.0,-0.00379004339829,-0.061565106166,0.995876079307,-0.0629989640943,0.995876079307,-0.0629989640943,-0.00379004339829,-0.061565106166
500000000.0,-0.00598187104243,-0.0767843766076,0.993682467104,-0.078576742907,0.993682467104,-0.078576742907,-0.00598187104243,-0.0767843766076
600000000.0,-0.00864454950426,-0.0918908456465,0.99101799554,-0.0940417465955,0.99101799554,-0.0940417465955,-0.00864454950426,-0.0918908456465
700000000.0,-0.0117704633417,-0.106863345426,0.987890247718,-0.109372811161,0.987890247718,-0.109372811161,-0.0117704633417,-0.106863345426
800000000.0,-0.015350763201,-0.121681337499,0.984308052117,-0.124549401864,0.984308052117,-0.124549401864,-0.015350763201,-0.121681337499
900000000.0,-0.0193754247635,-0.136325000652,0.980281418683,-0.139551701073,0.980281418683,-0.139551701073,-0.0193754247635,-0.136325000652
1000000000.0,-0.0238333160487,-0.150775311877,0.975821469024,-0.154360689264,0.975821469024,-0.154360689264,-0.0238333160487,-0.150775311877
1100000000.0,-0.0287122715518,-0.165014119869,0.970940360877,-0.168958218535,0.970940360877,-0.168958218535,-0.0287122715518,-0.165014119869
1200000000.0,-0.0339991720293,-0.179024210527,0.9656512075,-0.183327078112,0.9656512075,-0.183327078112,-0.0339991720293,-0.179024210527
1300000000.0,-0.0396800288506,-0.192789364063,0.959967992796,-0.197451051472,0.959967992796,-0.197451051472,-0.0396800288506,-0.192789364063
1400000000.0,-0.0457400718792,-0.206294403456,0.953905483093,-0.211314964802,0.953905483093,-0.211314964802,-0.0457400718792,-0.206294403456
1500000000.0,-0.0521638398703,-0.219525234099,0.947479136516,-0.224904726655,0.947479136516,-0.224904726655,-0.0521638398703,-0.219525234099
1600000000.0,-0.0589352723977,-0.232468874616,0.940705010895,-0.238207358768,0.940705010895,-0.238207358768,-0.0589352723977,-0.232468874616
1700000000.0,-0.0660378023585,-0.245113478935,0.933599671146,-0.251211018141,0.933599671146,-0.251211018141,-0.0660378023585,-0.245113478935
1800000000.0,-0.0734544481497,-0.257448349805,0.926180097007,-0.26390501056,0.926180097007,-0.26390501056,-0.0734544481497,-0.257448349805
1900000000.0,-0.0811679046641,-0.269463944054,0.918463591978,-0.276279795852,0.918463591978,-0.276279795852,-0.0811679046641,-0.269463944054
2000000000.0,-0.0891606323193,-0.281151869954,0.910467694243,-0.288326985259,0.910467694243,-0.288326985259,-0.0891606323193,-0.281151869954
2100000000.0,-0.0974149434052,-0.292504877147,0.902210090286,-0.30003933136,0.902210090286,-0.30003933136,-0.0974149434052,-0.292504877147
2200000000.0,-0.105913085112,-0.303516839644,0.893708531829,-0.311410711078,0.893708531829,-0.311410711078,-0.105913085112,-0.303516839644
2300000000.0,-0.114637318684,-0.314182732451,0.884980756658,-0.322436102307,0.884980756658,-0.322436102307,-0.114637318684,-0.314182732451
2400000000.0,-0.123569994234,-0.324498602438,0.876044413792,-0.333111554774,0.876044413792,-0.333111554774,-0.123569994234,-0.324498602438
2500000000.0,-0.132693620817,-0.334461534047,0.866916993386,-0.343434155762,0.866916993386,-0.343434155762,-0.132693620817,-0.334461534047
2600000000.0,-0.141990931486,-0.344069610509,0.857615761671,-0.353401991317,0.857615761671,-0.353401991317,-0.141990931486,-0.344069610509
2700000000.0,-0.151444943084,-0.353321871186,0.848157701148,-0.363014103599,0.848157701148,-0.363014103599,-0.151444943084,-0.353321871186
2800000000.0,-0.161039010641,-0.362218265692,0.838559456179,-0.372270444999,0.838559456179,-0.372270444999,-0.161039010641,-0.362218265692
2900000000.0,-0.170756876309,-0.370759605399,0.828837284051,-0.381171829647,0.828837284051,-0.381171829647,-0.170756876309,-0.370759605399
3000000000.0,-0.180582712818,-0.378947512937,0.819007011513,-0.389719882916,0.819007011513,-0.389719882916,-0.180582712818,-0.378947512937
3100000000.0,-0.190501161517,-0.386784370256,0.809083996724,-0.397916989479,0.809083996724,-0.397916989479,-0.190501161517,-0.386784370256
3200000000.0,-0.200497365116,-0.394273265774,0.799083096513,-0.405766240467,0.799083096513,-0.405766240467,-0.200497365116,-0.394273265774
3300000000.0,-0.210556995266,-0.401417941128,0.789018638792,-0.413271380208,0.789018638792,-0.413271380208,-0.210556995266,-0.401417941128
3400000000.0,-0.220666275205,-0.408222737965,0.778904399909,-0.420436753032,0.778904399909,-0.420436753032,-0.220666275205,-0.408222737965
3500000000.0,-0.23081199767,-0.414692545202,0.76875358673,-0.42726725052,0.76875358673,-0.42726725052,-0.23081199767,-0.414692545202
3600000000.0,-0.240981538358,-0.42083274711,0.75857882318,-0.4337682596,0.75857882318,-0.4337682596,-0.240981538358,-0.42083274711
3700000000.0,-0.251162865195,-0.426649172565,0.748392140967,-0.439945611787,0.748392140967,-0.439945611787,-0.251162865195,-0.426649172565
3800000000.0,-0.261344543724,-0.432148045732,0.738204974195,-0.445805533876,0.738204974195,-0.445805533876,-0.261344543724,-0.432148045732
3900000000.0,-0.271515738902,-0.437335938428,0.728028157567,-0.451354600302,0.728028157567,-0.451354600302,-0.271515738902,-0.437335938428
4000000000.0,-0.281666213616,-0.442219724366,0.717871927862,-0.456599687385,0.717871927862,-0.456599687385,-0.281666213616,-0.442219724366
4100000000.0,-0.291786324232,-0.44680653544,0.707745928393,-0.461547929616,0.707745928393,-0.461547929616,-0.291786324232,-0.44680653544
4200000000.0,-0.301867013473,-0.45110372017,0.697659216118,-0.466206678101,0.697659216118,-0.466206678101,-0.301867013473,-0.45110372017
4300000000.0,-0.311899800928,-0.455118804401,0.687620271139,-0.470583461263,0.687620271139,-0.470583461263,-0.311899800928,-0.455118804401
4400000000.0,-0.321876771479,-0.458859454329,0.677637008269,-0.474685947863,0.677637008269,-0.474685947863,-0.321876771479,-0.458859454329
4500000000.0,-0.331790561918,-0.462333441861,0.667716790414,-0.47852191237,0.667716790414,-0.47852191237,-0.331790561918,-0.462333441861
4600000000.0,-0.341634346027,-0.465548612346,0.657866443497,-0.482099202683,0.657866443497,-0.482099202683,-0.341634346027,-0.465548612346
4700000000.0,-0.351401818352,-0.468512854647,0.648092272676,-0.485425710207,0.648092272676,-0.485425710207,-0.351401818352,-0.468512854647
4800000000.0,-0.361087176922,-0.471234073526,0.638400079634,-0.488509342237,0.638400079634,-0.488509342237,-0.361087176922,-0.471234073526
4900000000.0,-0.370685105106,-0.473720164291,0.62879518071,-0.491357996611,0.62879518071,-0.491357996611,-0.370685105106,-0.473720164291
5000000000.0,-0.380190752835,-0.475978989655,0.619282425688,-0.49397953856,0.619282425688,-0.49397953856,-0.380190752835,-0.475978989655
5100000000.0,-0.389599717337,-0.478018358712,0.609866217054,-0.49638177969,0.609866217054,-0.49638177969,-0.389599717337,-0.478018358712
5200000000.0,-0.39890802358,-0.479846007967,0.600550529552,-0.498572459016,0.600550529552,-0.498572459016,-0.39890802358,-0.479846007967
5300000000.0,-0.408112104555,-0.481469584326,0.591338929909,-0.500559225941,0.591338929909,-0.500559225941,-0.408112104555,-0.481469584326
5400000000.0,-0.417208781534,-0.482896629935,0.582234596567,-0.502349625107,0.582234596567,-0.502349625107,-0.417208781534,-0.482896629935
5500000000.0,-0.426195244431,-0.484134568795,0.573240339326,-0.503951083003,0.573240339326,-0.503951083003,-0.426195244431,-0.484134568795
5600000000.0,-0.435069032355,-0.485190695033,0.564358618795,-0.505370896238,0.564358618795,-0.505370896238,-0.435069032355,-0.485190695033
5700000000.0,-0.443828014454,-0.486072162727,0.555591565536,-0.506616221369,0.555591565536,-0.506616221369,-0.443828014454,-0.486072162727
5800000000.0,-0.452470371135,-0.486785977199,0.546940998858,-0.507694066191,0.546940998858,-0.507694066191,-0.452470371135,-0.486785977199
5900000000.0,-0.460994575704,-0.487338987659,0.538408445167,-0.50861128238,0.538408445167,-0.50861128238,-0.460994575704,-0.487338987659
6000000000.0,-0.469399376509,-0.487737881103,0.529995155825,-0.509374559396,0.529995155825,-0.509374559396,-0.469399376509,-0.487737881103
6100000000.0,-0.477683779607,-0.487989177378,0.521702124485,-0.509990419546,0.521702124485,-0.509990419546,-0.477683779607,-0.487989177378
6200000000.0,-0.485847032006,-0.488099225313,0.513530103846,-0.510465214113,0.513530103846,-0.510465214113,-0.485847032006,-0.488099225313
6300000000.0,-0.49388860551,-0.488074199826,0.505479621812,-0.510805120466,0.505479621812,-0.510805120466,-0.49388860551,-0.488074199826
6400000000.0,-0.501808181173,-0.487920099925,0.497550997031,-0.511016140061,0.497550997031,-0.511016140061,-0.501808181173,-0.487920099925
6500000000.0,-0.509605634398,-0.487642747518,0.489744353804,-0.511104097249,0.489744353804,-0.511104097249,-0.509605634398,-0.487642747518
6600000000.0,-0.517281020673,-0.487247786954,0.482059636343,-0.511074638819,0.482059636343,-0.511074638819,-0.517281020673,-0.487247786954
6700000000.0,-0.524834561949,-0.486740685225,0.474496622394,-0.5109332342,0.474496622394,-0.5109332342,-0.524834561949,-0.486740685225
6800000000.0,-0.532266633671,-0.486126732753,0.467054936208,-0.510685176252,0.467054936208,-0.510685176252,-0.532266633671,-0.486126732753
6900000000.0,-0.539577752439,-0.485411044714,0.459734060878,-0.510335582578,0.459734060878,-0.510335582578,-0.539577752439,-0.485411044714
7000000000.0,-0.546768564307,-0.48459856281,0.452533350041,-0.50988939731,0.452533350041,-0.50988939731,-0.546768564307,-0.48459856281
7100000000.0,-0.553839833691,-0.483694057463,0.445452038969,-0.509351393299,0.445452038969,-0.509351393299,-0.553839833691,-0.483694057463
7200000000.0,-0.560792432894,-0.48270213036,0.438489255044,-0.508726174655,0.438489255044,-0.508726174655,-0.560792432894,-0.48270213036
7300000000.0,-0.567627332213,-0.48162721731,0.431644027651,-0.508018179609,0.431644027651,-0.508018179609,-0.567627332213,-0.48162721731
7400000000.0,-0.574345590617,-0.480473591361,0.424915297502,-0.50723168363,0.424915297502,-0.50723168363,-0.574345590617,-0.480473591361
7500000000.0,-0.580948346983,-0.479245366143,0.418301925397,-0.506370802768,0.418301925397,-0.506370802768,-0.580948346983,-0.479245366143
7600000000.0,-0.587436811864,-0.477946499402,0.411802700455,-0.505439497185,0.411802700455,-0.505439497185,-0.587436811864,-0.477946499402
7700000000.0,-0.593812259769,-0.476580796682,0.405416347839,-0.50444157484,0.405416347839,-0.50444157484,-0.593812259769,-0.476580796682
7800000000.0,-0.600076021937,-0.475151915127,0.399141535978,-0.503380695294,0.399141535978,-0.503380695294,-0.600076021937,-0.475151915127
7900000000.0,-0.606229479584,-0.473663367384,0.392976883321,-0.502260373606,0.392976883321,-0.502260373606,-0.606229479584,-0.473663367384
8000000000.0,-0.612274057597,-0.472118525571,0.386920964642,-0.501083984308,0.386920964642,-0.501083984308,-0.612274057597,-0.472118525571
8100000000.0,-0.618211218662,-0.470520625295,0.380972316913,-0.499854765418,0.380972316913,-0.499854765418,-0.618211218662,-0.470520625295
8200000000.0,-0.6240424578,-0.468872769689,0.375129444768,-0.49857582248,0.375129444768,-0.49857582248,-0.6240424578,-0.468872769689
8300000000.0,-0.629769297286,-0.467177933464,0.369390825584,-0.497250132616,0.369390825584,-0.497250132616,-0.629769297286,-0.467177933464
8400000000.0,-0.635393281946,-0.465438966952,0.363754914182,-0.495880548571,0.363754914182,-0.495880548571,-0.635393281946,-0.465438966952
8500000000.0,-0.640915974793,-0.463658600128,0.358220147196,-0.494469802726,0.358220147196,-0.494469802726,-0.640915974793,-0.463658600128
8600000000.0,-0.646338953,-0.461839446589,0.352784947093,-0.493020511092,0.352784947093,-0.493020511092,-0.646338953,-0.461839446589
8700000000.0,-0.651663804178,-0.459984007503,0.3474477259,-0.491535177246,0.3474477259,-0.491535177246,-0.651663804178,-0.459984007503
8800000000.0,-0.656892122954,-0.45809467549,0.342206888626,-0.490016196217,0.342206888626,-0.490016196217,-0.656892122954,-0.45809467549
8900000000.0,-0.662025507815,-0.456173738444,0.337060836412,-0.488465858313,0.337060836412,-0.488465858313,-0.662025507815,-0.456173738444
9000000000.0,-0.667065558227,-0.454223383291,0.332007969422,-0.48688635287,0.332007969422,-0.48688635287,-0.667065558227,-0.454223383291
9100000000.0,-0.67201387198,-0.452245699662,0.327046689488,-0.485279771931,0.327046689488,-0.485279771931,-0.67201387198,-0.452245699662
9200000000.0,-0.676872042774,-0.450242683495,0.322175402531,-0.483648113847,0.322175402531,-0.483648113847,-0.676872042774,-0.450242683495
9300000000.0,-0.681641658014,-0.448216240543,0.317392520762,-0.481993286787,0.317392520762,-0.481993286787,-0.681641658014,-0.448216240543
9400000000.0,-0.686324296807,-0.446168189807,0.312696464686,-0.480317112162,0.312696464686,-0.480317112162,-0.686324296807,-0.446168189807
9500000000.0,-0.690921528144,-0.444100266862,0.308085664922,-0.478621327969,0.308085664922,-0.478621327969,-0.690921528144,-0.444100266862
9600000000.0,-0.695434909259,-0.442014127113,0.303558563839,-0.476907592025,0.303558563839,-0.476907592025,-0.695434909259,-0.442014127113
9700000000.0,-0.699865984152,-0.439911348937,0.299113617042,-0.475177485129,0.299113617042,-0.475177485129,-0.699865984152,-0.439911348937
9800000000.0,-0.704216282254,-0.437793436745,0.294749294692,-0.473432514111,0.294749294692,-0.473432514111,-0.704216282254,-0.437793436745
9900000000.0,-0.708487317253,-0.435661823948,0.2904640827,-0.471674114804,0.2904640827,-0.471674114804,-0.708487317253,-0.435661823948
10000000000.0,-0.712680586027,-0.433517875822,0.286256483774,-0.469903654909,0.286256483774,-0.469903654909,-0.712680586027,-0.433517875822
