freq (GHz),S11_real,S11_imag,S21_real,S21_imag,S12_real,S12_imag,S22_real,S22_imag
100000000.0,-0.000256243868711,-0.0180443234582,0.999552358271,-0.0184667848711,0.999552358271,-0.0184667848711,-0.000256243868711,-0.0180443234582
200000000.0,-0.00127229132996,-0.0360509495359,0.998534739864,-0.0368958980221,0.998534739864,-0.0368958980221,-0.00127229132996,-0.0360509495359
300000000.0,-0.00294973959704,-0.0539837668069,0.996855871709,-0.0552512437264,0.996855871709,-0.0552512437264,-0.00294973959704,-0.0539837668069
400000000.0,-0.00528184945546,-0.0718071554382,0.994522328243,-0.0734972147946,0.994522328243,-0.0734972147946,-0.00528184945546,-0.0718071554382
500000000.0,-0.00825940625856,-0.0894862146755,0.991543260874,-0.0915989216513,0.991543260874,-0.0915989216513,-0.00825940625856,-0.0894862146755
600000000.0,-0.0118707743216,-0.106986982036,0.987930273116,-0.109522412044,0.987930273116,-0.109522412044,-0.0118707743216,-0.106986982036
700000000.0,-0.016101999949,-0.124276640233,0.983697299682,-0.127234878231,0.983697299682,-0.127234878231,-0.016101999949,-0.124276640233
800000000.0,-0.0209369405187,-0.141323709047,0.978860470891,-0.144704848998,0.978860470891,-0.144704848998,-0.0209369405187,-0.141323709047
900000000.0,-0.0263574134588,-0.158098219843,0.973437960802,-0.161902364281,0.973437960802,-0.161902364281,-0.0263574134588,-0.158098219843
1000000000.0,-0.0323433614706,-0.174571870865,0.967449820522,-0.178799130531,0.967449820522,-0.178799130531,-0.0323433614706,-0.174571870865
1100000000.0,-0.0388730308716,-0.190718161872,0.960917799053,-0.195368655395,0.960917799053,-0.195368655395,-0.0388730308716,-0.190718161872
1200000000.0,-0.0459231600444,-0.206512507079,0.953865154363,-0.211586360707,0.953865154363,-0.211586360707,-0.0459231600444,-0.206512507079
1300000000.0,-0.053469175014,-0.221932325853,0.946316457503,-0.227429673206,0.946316457503,-0.227429673206,-0.053469175014,-0.221932325853
1400000000.0,-0.0614853892424,-0.236957110976,0.938297392615,-0.242878092825,0.938297392615,-0.242878092825,-0.0614853892424,-0.236957110976
1500000000.0,-0.0699452048244,-0.251568474706,0.929834555601,-0.257913238778,0.929834555601,-0.257913238778,-0.0699452048244,-0.251568474706
1600000000.0,-0.0788213124237,-0.26575017326,0.920955254091,-0.272518874054,0.920955254091,-0.272518874054,-0.0788213124237,-0.26575017326
1700000000.0,-0.0880858874766,-0.279488110617,0.911687311173,-0.286680909238,0.911687311173,-0.286680909238,-0.0880858874766,-0.279488110617
1800000000.0,-0.0977107804281,-0.292770322865,0.902058875108,-0.300387386869,0.902058875108,-0.300387386869,-0.0977107804281,-0.292770322865
1900000000.0,-0.107667699017,-0.305586944541,0.892098237005,-0.313628447794,0.892098237005,-0.313628447794,-0.107667699017,-0.305586944541
2000000000.0,-0.117928380914,-0.317930158591,0.881833658156,-0.326396281129,0.881833658156,-0.326396281129,-0.117928380914,-0.317930158591
2100000000.0,-0.128464755297,-0.329794131717,0.871293208437,-0.338685059628,0.871293208437,-0.338685059628,-0.128464755297,-0.329794131717
2200000000.0,-0.139249092259,-0.341174936978,0.860504616885,-0.350490862278,0.860504616885,-0.350490862278,-0.139249092259,-0.341174936978
2300000000.0,-0.150254139204,-0.352070465532,0.849495135288,-0.361811586057,0.849495135288,-0.361811586057,-0.150254139204,-0.352070465532
2400000000.0,-0.161453243694,-0.36248032942,0.838291415325,-0.37264684872,0.838291415325,-0.37264684872,-0.161453243694,-0.36248032942
2500000000.0,-0.172820462443,-0.372405757259,0.826919399568,-0.382997884498,0.826919399568,-0.382997884498,-0.172820462443,-0.372405757259
2600000000.0,-0.184330656409,-0.381849484624,0.815404226376,-0.392867434486,0.815404226376,-0.392867434486,-0.184330656409,-0.381849484624
2700000000.0,-0.195959572143,-0.390815640818,0.803770148546,-0.402259633416,0.803770148546,-0.402259633416,-0.195959572143,-0.390815640818
2800000000.0,-0.207683909728,-0.399309633603,0.792040465365,-0.411179894397,0.792040465365,-0.411179894397,-0.207683909728,-0.399309633603
2900000000.0,-0.219481377828,-0.407338033342,0.78023746756,-0.419634793053,0.78023746756,-0.419634793053,-0.219481377828,-0.407338033342
3000000000.0,-0.231330736463,-0.414908457826,0.768382394517,-0.427631952363,0.768382394517,-0.427631952363,-0.231330736463,-0.414908457826
3100000000.0,-0.243211828259,-0.422029458963,0.756495403032,-0.435179929346,0.756495403032,-0.435179929346,-0.243211828259,-0.422029458963
3200000000.0,-0.255105598977,-0.428710412299,0.744595546772,-0.442288104588,0.744595546772,-0.442288104588,-0.255105598977,-0.428710412299
3300000000.0,-0.266994108206,-0.434961410215,0.73270076559,-0.448966575445,0.73270076559,-0.448966575445,-0.266994108206,-0.434961410215
3400000000.0,-0.278860531098,-0.440793159519,0.72082788378,-0.455226053631,0.72082788378,-0.455226053631,-0.278860531098,-0.440793159519
3500000000.0,-0.290689152076,-0.446216883954,0.708992616371,-0.461077767736,0.708992616371,-0.461077767736,-0.290689152076,-0.446216883954
3600000000.0,-0.302465351418,-0.451244232078,0.697209582541,-0.466533371107,0.697209582541,-0.466533371107,-0.302465351418,-0.451244232078
3700000000.0,-0.314175585604,-0.455887190817,0.685492325268,-0.471604855396,0.685492325268,-0.471604855396,-0.314175585604,-0.455887190817
3800000000.0,-0.325807362288,-0.460158004876,0.67385333636,-0.476304469984,0.67385333636,-0.476304469984,-0.325807362288,-0.460158004876
3900000000.0,-0.33734921072,-0.464069102123,0.662304086029,-0.480644647363,0.662304086029,-0.480644647363,-0.33734921072,-0.464069102123
4000000000.0,-0.348790648379,-0.467633024967,0.650855056258,-0.484637934513,0.650855056258,-0.484637934513,-0.348790648379,-0.467633024967
4100000000.0,-0.360122144548,-0.470862367656,0.639515777224,-0.488296930206,0.639515777224,-0.488296930206,-0.360122144548,-0.470862367656
4200000000.0,-0.371335081493,-0.473769719394,0.628294866124,-0.491634228122,0.628294866124,-0.491634228122,-0.371335081493,-0.473769719394
4300000000.0,-0.382421713848,-0.476367613093,0.61720006778,-0.494662365609,0.61720006778,-0.494662365609,-0.382421713848,-0.476367613093
4400000000.0,-0.393375126764,-0.478668479562,0.606238296502,-0.497393777863,0.606238296502,-0.497393777863,-0.393375126764,-0.478668479562
4500000000.0,-0.404189193298,-0.480684606874,0.595415678684,-0.49984075731,0.595415678684,-0.49984075731,-0.404189193298,-0.480684606874
4600000000.0,-0.414858531498,-0.482428104655,0.584737595733,-0.502015417883,0.584737595733,-0.502015417883,-0.414858531498,-0.482428104655
4700000000.0,-0.425378461544,-0.483910872999,0.574208726914,-0.50392966395,0.574208726914,-0.50392966395,-0.425378461544,-0.483910872999
4800000000.0,-0.435744963291,-0.485144575715,0.563833091821,-0.505595163557,0.563833091821,-0.505595163557,-0.435744963291,-0.485144575715
4900000000.0,-0.445954634484,-0.48614061761,0.553614092146,-0.507023325712,0.553614092146,-0.507023325712,-0.445954634484,-0.48614061761
5000000000.0,-0.456004649898,-0.486910125495,0.543554552556,-0.508225281395,0.543554552556,-0.508225281395,-0.456004649898,-0.486910125495
5100000000.0,-0.465892721574,-0.487463932621,0.533656760439,-0.509211867994,0.533656760439,-0.509211867994,-0.465892721574,-0.487463932621
5200000000.0,-0.475617060346,-0.487812566253,0.523922504392,-0.509993616879,0.523922504392,-0.509993616879,-0.475617060346,-0.487812566253
5300000000.0,-0.485176338748,-0.487966238091,0.514353111304,-0.510580743828,0.514353111304,-0.510580743828,-0.485176338748,-0.487966238091
5400000000.0,-0.494569655425,-0.487934837277,0.504949481952,-0.510983142034,0.504949481952,-0.510983142034,-0.494569655425,-0.487934837277
5500000000.0,-0.503796501101,-0.487727925724,0.495712125024,-0.51121037743,0.495712125024,-0.51121037743,-0.503796501101,-0.487727925724
5600000000.0,-0.512856726154,-0.48735473551,0.486641189553,-0.511271686094,0.486641189553,-0.511271686094,-0.512856726154,-0.48735473551
5700000000.0,-0.521750509828,-0.486824168136,0.477736495697,-0.511175973498,0.477736495697,-0.511175973498,-0.521750509828,-0.486824168136
5800000000.0,-0.53047833108,-0.486144795391,0.468997563902,-0.510931815384,0.468997563902,-0.510931815384,-0.53047833108,-0.486144795391
5900000000.0,-0.539040941056,-0.485324861669,0.460423642412,-0.510547460071,0.460423642412,-0.510547460071,-0.539040941056,-0.485324861669
6000000000.0,-0.54743933719,-0.48437228751,0.452013733184,-0.510030832008,0.452013733184,-0.510030832008,-0.54743933719,-0.48437228751
6100000000.0,-0.555674738867,-0.483294674227,0.443766616213,-0.509389536395,0.443766616213,-0.509389536395,-0.555674738867,-0.483294674227
6200000000.0,-0.563748564639,-0.482099309449,0.435680872325,-0.508630864727,0.435680872325,-0.508630864727,-0.563748564639,-0.482099309449
6300000000.0,-0.571662410931,-0.480793173426,0.427754904466,-0.507761801107,0.427754904466,-0.507761801107,-0.571662410931,-0.480793173426
6400000000.0,-0.579418032181,-0.479382945999,0.419986957564,-0.506789029208,0.419986957564,-0.506789029208,-0.579418032181,-0.479382945999
6500000000.0,-0.587017322378,-0.477875014079,0.412375136988,-0.505718939759,0.412375136988,-0.505718939759,-0.587017322378,-0.477875014079
6600000000.0,-0.594462297913,-0.476275479562,0.404917425701,-0.504557638457,0.404917425701,-0.504557638457,-0.594462297913,-0.476275479562
6700000000.0,-0.601755081704,-0.474590167564,0.397611700131,-0.503310954206,0.397611700131,-0.503310954206,-0.601755081704,-0.474590167564
6800000000.0,-0.608897888519,-0.472824634909,0.390455744853,-0.501984447605,0.390455744853,-0.501984447605,-0.608897888519,-0.472824634909
6900000000.0,-0.615893011439,-0.470984178775,0.38344726612,-0.500583419596,0.38344726612,-0.500583419596,-0.615893011439,-0.470984178775
7000000000.0,-0.622742809396,-0.46907384546,0.376583904327,-0.499112920224,0.376583904327,-0.499112920224,-0.622742809396,-0.46907384546
7100000000.0,-0.629449695739,-0.467098439179,0.369863245449,-0.497577757445,0.369863245449,-0.497577757445,-0.629449695739,-0.467098439179
7200000000.0,-0.636016127735,-0.465062530866,0.363282831533,-0.495982505922,0.363282831533,-0.495982505922,-0.636016127735,-0.465062530866
7300000000.0,-0.642444596992,-0.462970466925,0.356840170283,-0.49433151578,0.356840170283,-0.49433151578,-0.642444596992,-0.462970466925
7400000000.0,-0.648737620699,-0.4608263779,0.35053274381,-0.492628921273,0.35053274381,-0.492628921273,-0.648737620699,-0.4608263779
7500000000.0,-0.654897733669,-0.458634187017,0.344358016599,-0.490878649331,0.344358016599,-0.490878649331,-0.654897733669,-0.458634187017
7600000000.0,-0.660927481103,-0.456397618594,0.338313442737,-0.48908442797,0.338313442737,-0.48908442797,-0.660927481103,-0.456397618594
7700000000.0,-0.666829412048,-0.454120206274,0.332396472461,-0.487249794522,0.332396472461,-0.487249794522,-0.666829412048,-0.454120206274
7800000000.0,-0.672606073476,-0.451805301077,0.326604558074,-0.48537810369,0.326604558074,-0.48537810369,-0.672606073476,-0.451805301077
7900000000.0,-0.678260004964,-0.449456079245,0.320935159268,-0.483472535397,0.320935159268,-0.483472535397,-0.678260004964,-0.449456079245
8000000000.0,-0.683793733914,-0.44707554988,0.315385747906,-0.481536102419,0.315385747906,-0.481536102419,-0.683793733914,-0.44707554988
8100000000.0,-0.689209771277,-0.444666562353,0.309953812289,-0.4795716578,0.309953812289,-0.4795716578,-0.689209771277,-0.444666562353
8200000000.0,-0.694510607746,-0.442231813491,0.304636860975,-0.477581902033,0.304636860975,-0.477581902033,-0.694510607746,-0.442231813491
8300000000.0,-0.699698710379,-0.439773854519,0.299432426147,-0.475569390009,0.299432426147,-0.475569390009,-0.699698710379,-0.439773854519
8400000000.0,-0.704776519614,-0.437295097773,0.2943380666,-0.473536537729,0.2943380666,-0.473536537729,-0.704776519614,-0.437295097773
8500000000.0,-0.709746446656,-0.434797823175,0.289351370358,-0.471485628777,0.289351370358,-0.471485628777,-0.709746446656,-0.434797823175
8600000000.0,-0.714610871188,-0.432284184467,0.284469956956,-0.469418820556,0.284469956956,-0.469418820556,-0.714610871188,-0.432284184467
8700000000.0,-0.719372139402,-0.429756215205,0.279691479418,-0.467338150285,0.279691479418,-0.467338150285,-0.719372139402,-0.429756215205
8800000000.0,-0.724032562292,-0.427215834533,0.275013625952,-0.465245540768,0.275013625952,-0.465245540768,-0.724032562292,-0.427215834533
8900000000.0,-0.728594414225,-0.42466485271,0.270434121392,-0.463142805929,0.270434121392,-0.463142805929,-0.728594414225,-0.42466485271
9000000000.0,-0.733059931726,-0.422104976422,0.265950728401,-0.461031656119,0.265950728401,-0.461031656119,-0.733059931726,-0.422104976422
9100000000.0,-0.737431312492,-0.419537813871,0.261561248467,-0.458913703205,0.261561248467,-0.458913703205,-0.737431312492,-0.419537813871
9200000000.0,-0.741710714587,-0.416964879642,0.257263522702,-0.456790465443,0.257263522702,-0.456790465443,-0.741710714587,-0.416964879642
9300000000.0,-0.745900255821,-0.41438759937,0.253055432463,-0.454663372139,0.253055432463,-0.454663372139,-0.745900255821,-0.41438759937
9400000000.0,-0.750002013286,-0.411807314192,0.248934899819,-0.452533768107,0.248934899819,-0.452533768107,-0.750002013286,-0.411807314192
9500000000.0,-0.754018023033,-0.409225285008,0.244899887871,-0.450402917927,0.244899887871,-0.450402917927,-0.754018023033,-0.409225285008
9600000000.0,-0.757950279885,-0.406642696548,0.240948400942,-0.448272010013,0.240948400942,-0.448272010013,-0.757950279885,-0.406642696548
9700000000.0,-0.761800737357,-0.404060661252,0.237078484654,-0.446142160497,0.237078484654,-0.446142160497,-0.761800737357,-0.404060661252
9800000000.0,-0.765571307693,-0.401480222977,0.233288225892,-0.444014416928,0.233288225892,-0.444014416928,-0.765571307693,-0.401480222977
9900000000.0,-0.769263861985,-0.39890236052,0.229575752684,-0.441889761807,0.229575752684,-0.441889761807,-0.769263861985,-0.39890236052
10000000000.0,-0.772880230386,-0.396327990992,0.225939233993,-0.439769115951,0.225939233993,-0.439769115951,-0.772880230386,-0.396327990992
