freq (GHz),S11_real,S11_imag,S21_real,S21_imag,S12_real,S12_imag,S22_real,S22_imag
100000000.0,0.00214749296817,0.000238419753744,0.997851431814,-0.000316001036362,0.997851431814,-0.000316001036362,0.00214749296817,0.000238419753744
200000000.0,0.00216184467989,0.000476825137101,0.997836998858,-0.000631988897576,0.997836998858,-0.000631988897576,0.00216184467989,0.000476825137101
300000000.0,0.0021725180473,0.000715223208033,0.997826238221,-0.0009479712603,0.997826238221,-0.0009479712603,0.0021725180473,0.000715223208033
400000000.0,0.00218138315796,0.000953616716679,0.997817279814,-0.00126395135049,0.997817279814,-0.00126395135049,0.00218138315796,0.000953616716679
500000000.0,0.00218916179704,0.00119200737855,0.99780940185,-0.00157993128694,0.99780940185,-0.00157993128694,0.00218916179704,0.00119200737855
600000000.0,0.00219622285343,0.00143039644127,0.997802235439,-0.00189591267309,0.997802235439,-0.00189591267309,0.00219622285343,0.00143039644127
700000000.0,0.00220278470063,0.00166878489225,0.997795562206,-0.00221189681672,0.997795562206,-0.00221189681672,0.00220278470063,0.00166878489225
800000000.0,0.00220898912089,0.00190717355618,0.997789240367,-0.00252788483574,0.997789240367,-0.00252788483574,0.00220898912089,0.00190717355618
900000000.0,0.00221493424593,0.00214556314852,0.997783171791,-0.0028438777164,0.997783171791,-0.0028438777164,0.00221493424593,0.00214556314852
1000000000.0,0.00222069126721,0.00238395430783,0.997777285283,-0.00315987634865,0.997777285283,-0.00315987634865,0.00222069126721,0.00238395430783
1100000000.0,0.00222631373211,0.00262234761595,0.997771527295,-0.00347588154976,0.997771527295,-0.00347588154976,0.00222631373211,0.00262234761595
1200000000.0,0.00223184308773,0.00286074361226,0.997765856378,-0.00379189408007,0.997765856378,-0.00379189408007,0.00223184308773,0.00286074361226
1300000000.0,0.0022373121712,0.0030991428035,0.997760239693,-0.00410791465446,0.997760239693,-0.00410791465446,0.0022373121712,0.0030991428035
1400000000.0,0.0022427475058,0.00333754567103,0.997754650717,-0.00442394395083,0.997754650717,-0.00442394395083,0.0022427475058,0.00333754567103
1500000000.0,0.00224817086685,0.00357595267614,0.997749067671,-0.00473998261655,0.997749067671,-0.00473998261655,0.00224817086685,0.00357595267614
1600000000.0,0.00225360038207,0.00381436426419,0.997743472426,-0.00505603127352,0.997743472426,-0.00505603127352,0.00225360038207,0.00381436426419
1700000000.0,0.00225905132546,0.00405278086793,0.997737849707,-0.00537209052206,0.997737849707,-0.00537209052206,0.00225905132546,0.00405278086793
1800000000.0,0.00226453670247,0.00429120291001,0.997732186506,-0.00568816094408,0.997732186506,-0.00568816094408,0.00226453670247,0.00429120291001
1900000000.0,0.00227006769002,0.00452963080495,0.997726471645,-0.00600424310585,0.997726471645,-0.00600424310585,0.00227006769002,0.00452963080495
2000000000.0,0.0022756539729,0.00476806496104,0.997720695437,-0.00632033755989,0.997720695437,-0.00632033755989,0.0022756539729,0.00476806496104
2100000000.0,0.00228130400494,0.00500650578151,0.997714849427,-0.00663644484703,0.997714849427,-0.00663644484703,0.00228130400494,0.00500650578151
2200000000.0,0.00228702521445,0.00524495366574,0.997708926184,-0.0069525654978,0.997708926184,-0.0069525654978,0.00228702521445,0.00524495366574
2300000000.0,0.00229282416775,0.00548340901029,0.99770291914,-0.0072687000337,0.99770291914,-0.0072687000337,0.00229282416775,0.00548340901029
2400000000.0,0.00229870670098,0.00572187220957,0.997696822458,-0.00758484896844,0.997696822458,-0.00758484896844,0.00229870670098,0.00572187220957
2500000000.0,0.00230467802707,0.00596034365669,0.997690630921,-0.0079010128087,0.997690630921,-0.0079010128087,0.00230467802707,0.00596034365669
2600000000.0,0.00231074282362,0.00619882374388,0.997684339852,-0.00821719205514,0.997684339852,-0.00821719205514,0.00231074282362,0.00619882374388
2700000000.0,0.00231690530554,0.00643731286314,0.997677945032,-0.00853338720302,0.997677945032,-0.00853338720302,0.00231690530554,0.00643731286314
2800000000.0,0.00232316928559,0.00667581140655,0.997671442647,-0.00884959874287,0.997671442647,-0.00884959874287,0.00232316928559,0.00667581140655
2900000000.0,0.00232953822522,0.00691431976672,0.997664829235,-0.00916582716107,0.997664829235,-0.00916582716107,0.00232953822522,0.00691431976672
3000000000.0,0.00233601527752,0.00715283833707,0.997658101639,-0.00948207294031,0.997658101639,-0.00948207294031,0.00233601527752,0.00715283833707
3100000000.0,0.00234260332366,0.00739136751213,0.997651256976,-0.00979833656004,0.997651256976,-0.00979833656004,0.00234260332366,0.00739136751213
3200000000.0,0.0023493050041,0.00762990768777,0.997644292605,-0.0101146184969,0.997644292605,-0.0101146184969,0.0023493050041,0.00762990768777
3300000000.0,0.00235612274538,0.00786845926147,0.997637206096,-0.010430919225,0.997637206096,-0.010430919225,0.00235612274538,0.00786845926147
3400000000.0,0.00236305878324,0.0081070226324,0.997629995211,-0.0107472392163,0.997629995211,-0.0107472392163,0.00236305878324,0.0081070226324
3500000000.0,0.00237011518266,0.00834559820168,0.997622657885,-0.0110635789409,0.997622657885,-0.0110635789409,0.00237011518266,0.00834559820168
3600000000.0,0.00237729385537,0.00858418637247,0.997615192202,-0.0113799388672,0.997615192202,-0.0113799388672,0.00237729385537,0.00858418637247
3700000000.0,0.00238459657504,0.00882278755014,0.997607596387,-0.0116963194623,0.997607596387,-0.0116963194623,0.00238459657504,0.00882278755014
3800000000.0,0.00239202499079,0.00906140214233,0.99759986879,-0.012012721192,0.99759986879,-0.012012721192,0.00239202499079,0.00906140214233
3900000000.0,0.00239958063893,0.00930003055906,0.997592007871,-0.0123291445213,0.997592007871,-0.0123291445213,0.00239958063893,0.00930003055906
4000000000.0,0.00240726495341,0.00953867321286,0.997584012194,-0.012645589914,0.997584012194,-0.012645589914,0.00240726495341,0.00953867321286
4100000000.0,0.00241507927511,0.00977733051877,0.997575880417,-0.0129620578337,0.997575880417,-0.0129620578337,0.00241507927511,0.00977733051877
4200000000.0,0.00242302486003,0.0100160028945,0.997567611282,-0.0132785487432,0.997567611282,-0.0132785487432,0.00242302486003,0.0100160028945
4300000000.0,0.0024311028867,0.0102546907603,0.997559203608,-0.013595063105,0.997559203608,-0.013595063105,0.0024311028867,0.0102546907603
4400000000.0,0.00243931446267,0.0104933945393,0.997550656285,-0.0139116013812,0.997550656285,-0.0139116013812,0.00243931446267,0.0104933945393
4500000000.0,0.00244766063046,0.0107321146574,0.997541968269,-0.0142281640339,0.997541968269,-0.0142281640339,0.00244766063046,0.0107321146574
4600000000.0,0.00245614237287,0.010970851543,0.997533138574,-0.0145447515252,0.997533138574,-0.0145447515252,0.00245614237287,0.010970851543
4700000000.0,0.0024647606177,0.0112096056278,0.997524166272,-0.014861364317,0.997524166272,-0.014861364317,0.0024647606177,0.0112096056278
4800000000.0,0.00247351624212,0.0114483773458,0.997515050482,-0.0151780028715,0.997515050482,-0.0151780028715,0.00247351624212,0.0114483773458
4900000000.0,0.00248241007656,0.0116871671345,0.997505790373,-0.0154946676511,0.997505790373,-0.0154946676511,0.00248241007656,0.0116871671345
5000000000.0,0.00249144290822,0.0119259754337,0.997496385154,-0.0158113591184,0.997496385154,-0.0158113591184,0.00249144290822,0.0119259754337
5100000000.0,0.00250061548435,0.0121648026866,0.997486834077,-0.0161280777364,0.997486834077,-0.0161280777364,0.00250061548435,0.0121648026866
5200000000.0,0.00250992851513,0.0124036493389,0.99747713643,-0.0164448239685,0.99747713643,-0.0164448239685,0.00250992851513,0.0124036493389
5300000000.0,0.0025193826764,0.0126425158396,0.997467291534,-0.0167615982786,0.997467291534,-0.0167615982786,0.0025193826764,0.0126425158396
5400000000.0,0.00252897861206,0.0128814026404,0.997457298744,-0.0170784011311,0.997457298744,-0.0170784011311,0.00252897861206,0.0128814026404
5500000000.0,0.00253871693633,0.013120310196,0.997447157443,-0.0173952329908,0.997447157443,-0.0173952329908,0.00253871693633,0.013120310196
5600000000.0,0.00254859823581,0.013359238964,0.997436867043,-0.0177120943233,0.997436867043,-0.0177120943233,0.00254859823581,0.013359238964
5700000000.0,0.00255862307137,0.0135981894052,0.997426426981,-0.0180289855948,0.997426426981,-0.0180289855948,0.00255862307137,0.0135981894052
5800000000.0,0.00256879197986,0.0138371619831,0.997415836718,-0.0183459072722,0.997415836718,-0.0183459072722,0.00256879197986,0.0138371619831
5900000000.0,0.00257910547575,0.014076157164,0.997405095738,-0.0186628598231,0.997405095738,-0.0186628598231,0.00257910547575,0.014076157164
6000000000.0,0.00258956405259,0.0143151754176,0.997394203545,-0.0189798437159,0.997394203545,-0.0189798437159,0.00258956405259,0.0143151754176
6100000000.0,0.00260016818434,0.0145542172161,0.997383159662,-0.0192968594197,0.997383159662,-0.0192968594197,0.00260016818434,0.0145542172161
6200000000.0,0.0026109183267,0.0147932830349,0.997371963634,-0.0196139074045,0.997371963634,-0.0196139074045,0.0026109183267,0.0147932830349
6300000000.0,0.00262181491822,0.0150323733522,0.997360615018,-0.0199309881411,0.997360615018,-0.0199309881411,0.00262181491822,0.0150323733522
6400000000.0,0.00263285838142,0.0152714886492,0.997349113391,-0.0202481021012,0.997349113391,-0.0202481021012,0.00263285838142,0.0152714886492
6500000000.0,0.00264404912378,0.0155106294098,0.997337458343,-0.0205652497573,0.997337458343,-0.0205652497573,0.00264404912378,0.0155106294098
6600000000.0,0.00265538753866,0.0157497961211,0.997325649479,-0.0208824315829,0.997325649479,-0.0208824315829,0.00265538753866,0.0157497961211
6700000000.0,0.00266687400622,0.0159889892729,0.997313686417,-0.0211996480524,0.997313686417,-0.0211996480524,0.00266687400622,0.0159889892729
6800000000.0,0.00267850889419,0.0162282093579,0.997301568787,-0.0215168996412,0.997301568787,-0.0215168996412,0.00267850889419,0.0162282093579
6900000000.0,0.00269029255865,0.0164674568717,0.997289296232,-0.0218341868256,0.997289296232,-0.0218341868256,0.00269029255865,0.0164674568717
7000000000.0,0.00270222534471,0.0167067323128,0.997276868404,-0.0221515100829,0.997276868404,-0.0221515100829,0.00270222534471,0.0167067323128
7100000000.0,0.00271430758719,0.0169460361824,0.997264284968,-0.0224688698913,0.997264284968,-0.0224688698913,0.00271430758719,0.0169460361824
7200000000.0,0.00272653961126,0.0171853689848,0.997251545594,-0.0227862667301,0.997251545594,-0.0227862667301,0.00272653961126,0.0171853689848
7300000000.0,0.00273892173298,0.0174247312269,0.997238649968,-0.0231037010796,0.997238649968,-0.0231037010796,0.00273892173298,0.0174247312269
7400000000.0,0.00275145425986,0.0176641234185,0.997225597777,-0.0234211734212,0.997225597777,-0.0234211734212,0.00275145425986,0.0176641234185
7500000000.0,0.00276413749135,0.0179035460722,0.997212388723,-0.0237386842373,0.997212388723,-0.0237386842373,0.00276413749135,0.0179035460722
7600000000.0,0.00277697171938,0.0181429997034,0.997199022511,-0.0240562340112,0.997199022511,-0.0240562340112,0.00277697171938,0.0181429997034
7700000000.0,0.00278995722873,0.0183824848302,0.997185498854,-0.0243738232274,0.997185498854,-0.0243738232274,0.00278995722873,0.0183824848302
7800000000.0,0.00280309429749,0.0186220019736,0.997171817473,-0.0246914523716,0.997171817473,-0.0246914523716,0.00280309429749,0.0186220019736
7900000000.0,0.00281638319748,0.0188615516574,0.997157978094,-0.0250091219302,0.997157978094,-0.0250091219302,0.00281638319748,0.0188615516574
8000000000.0,0.00282982419458,0.0191011344079,0.99714398045,-0.025326832391,0.99714398045,-0.025326832391,0.00282982419458,0.0191011344079
8100000000.0,0.00284341754911,0.0193407507543,0.997129824279,-0.0256445842429,0.997129824279,-0.0256445842429,0.00284341754911,0.0193407507543
8200000000.0,0.00285716351616,0.0195804012286,0.997115509325,-0.0259623779756,0.997115509325,-0.0259623779756,0.00285716351616,0.0195804012286
8300000000.0,0.00287106234591,0.0198200863654,0.997101035335,-0.0262802140802,0.997101035335,-0.0262802140802,0.00287106234591,0.0198200863654
8400000000.0,0.00288511428391,0.020059806702,0.997086402063,-0.0265980930488,0.997086402063,-0.0265980930488,0.00288511428391,0.020059806702
8500000000.0,0.00289931957138,0.0202995627785,0.997071609265,-0.0269160153745,0.997071609265,-0.0269160153745,0.00289931957138,0.0202995627785
8600000000.0,0.00291367844547,0.0205393551375,0.997056656704,-0.0272339815518,0.997056656704,-0.0272339815518,0.00291367844547,0.0205393551375
8700000000.0,0.0029281911395,0.0207791843245,0.997041544144,-0.027551992076,0.997041544144,-0.027551992076,0.0029281911395,0.0207791843245
8800000000.0,0.00294285788324,0.0210190508875,0.997026271354,-0.0278700474437,0.997026271354,-0.0278700474437,0.00294285788324,0.0210190508875
8900000000.0,0.00295767890307,0.0212589553771,0.997010838107,-0.0281881481527,0.997010838107,-0.0281881481527,0.00295767890307,0.0212589553771
9000000000.0,0.00297265442225,0.0214988983468,0.996995244178,-0.0285062947018,0.996995244178,-0.0285062947018,0.00297265442225,0.0214988983468
9100000000.0,0.00298778466112,0.0217388803525,0.996979489345,-0.0288244875909,0.996979489345,-0.0288244875909,0.00298778466112,0.0217388803525
9200000000.0,0.00300306983727,0.0219789019528,0.996963573389,-0.0291427273213,0.996963573389,-0.0291427273213,0.00300306983727,0.0219789019528
9300000000.0,0.00301851016573,0.0222189637089,0.996947496095,-0.0294610143951,0.996947496095,-0.0294610143951,0.00301851016573,0.0222189637089
9400000000.0,0.00303410585914,0.0224590661846,0.996931257248,-0.0297793493158,0.996931257248,-0.0297793493158,0.00303410585914,0.0224590661846
9500000000.0,0.00304985712797,0.0226992099463,0.996914856636,-0.030097732588,0.996914856636,-0.030097732588,0.00304985712797,0.0226992099463
9600000000.0,0.00306576418061,0.0229393955631,0.99689829405,-0.0304161647174,0.99689829405,-0.0304161647174,0.00306576418061,0.0229393955631
9700000000.0,0.00308182722353,0.0231796236064,0.996881569283,-0.0307346462109,0.996881569283,-0.0307346462109,0.00308182722353,0.0231796236064
9800000000.0,0.00309804646148,0.0234198946505,0.996864682128,-0.0310531775766,0.996864682128,-0.0310531775766,0.00309804646148,0.0234198946505
9900000000.0,0.00311442209758,0.0236602092722,0.996847632382,-0.0313717593238,0.996847632382,-0.0313717593238,0.00311442209758,0.0236602092722
10000000000.0,0.00313095433346,0.0239005680505,0.996830419841,-0.0316903919627,0.996830419841,-0.0316903919627,0.00313095433346,0.0239005680505
