freq (GHz),S11_real,S11_imag,S21_real,S21_imag,S12_real,S12_imag,S22_real,S22_imag
100000000.0,0.00393404733875,0.000904581932673,0.996057131454,-0.00402162710806,0.996057131454,-0.00402162710806,0.00393404733875,0.000904581932673
200000000.0,0.00396972149617,0.00180884903566,0.996003906871,-0.0080429384472,0.996003906871,-0.0080429384472,0.00396972149617,0.00180884903566
300000000.0,0.00400580971622,0.00271284109916,0.995940538338,-0.0120639723455,0.995940538338,-0.0120639723455,0.00400580971622,0.00271284109916
400000000.0,0.00404571174906,0.0036165311545,0.995863625277,-0.0160846957732,0.995863625277,-0.0160846957732,0.00404571174906,0.0036165311545
500000000.0,0.00409073502425,0.00451987698963,0.995771859282,-0.0201050581322,0.995771859282,-0.0201050581322,0.00409073502425,0.00451987698963
600000000.0,0.0041415445764,0.00542282976914,0.995664574204,-0.0241250006753,0.995664574204,-0.0241250006753,0.0041415445764,0.00542282976914
700000000.0,0.00419853155772,0.00632533710746,0.995541377651,-0.0281444599864,0.995541377651,-0.0281444599864,0.00419853155772,0.00632533710746
800000000.0,0.00426194770488,0.0072273444843,0.995402016526,-0.0321633696393,0.995402016526,-0.0321633696393,0.00426194770488,0.0072273444843
900000000.0,0.0043319651974,0.00812879600025,0.995246317179,-0.036181661114,0.995246317179,-0.036181661114,0.0043319651974,0.00812879600025
1000000000.0,0.00440870699159,0.0090296348215,0.995074155078,-0.0401992643535,0.995074155078,-0.0401992643535,0.00440870699159,0.0090296348215
1100000000.0,0.00449226367893,0.00992980346105,0.994885437957,-0.0442161081283,0.994885437957,-0.0442161081283,0.00449226367893,0.00992980346105
1200000000.0,0.00458270352908,0.0108292439665,0.994680095777,-0.0482321202872,0.994680095777,-0.0482321202872,0.00458270352908,0.0108292439665
1300000000.0,0.00468007880711,0.0117278980508,0.994458074413,-0.0522472279377,0.994458074413,-0.0522472279377,0.00468007880711,0.0117278980508
1400000000.0,0.00478442992481,0.0126257071871,0.994219331508,-0.0562613575809,0.994219331508,-0.0562613575809,0.00478442992481,0.0126257071871
1500000000.0,0.00489578826895,0.0135226126793,0.993963833647,-0.0602744352138,0.993963833647,-0.0602744352138,0.00489578826895,0.0135226126793
1600000000.0,0.00501417818742,0.0144185557155,0.993691554374,-0.064286386411,0.993691554374,-0.064286386411,0.00501417818742,0.0144185557155
1700000000.0,0.00513961842031,0.0153134774109,0.993402472767,-0.0682971363895,0.993402472767,-0.0682971363895,0.00513961842031,0.0153134774109
1800000000.0,0.00527212315427,0.0162073188409,0.993096572382,-0.0723066100614,0.993096572382,-0.0723066100614,0.00527212315427,0.0162073188409
1900000000.0,0.00541170281462,0.0171000210691,0.992773840468,-0.076314732079,0.992773840468,-0.076314732079,0.00541170281462,0.0171000210691
2000000000.0,0.00555836467056,0.0179915251697,0.99243426736,-0.0803214268711,0.99243426736,-0.0803214268711,0.00555836467056,0.0179915251697
2100000000.0,0.00571211330479,0.0188817722469,0.992077846016,-0.0843266186757,0.992077846016,-0.0843266186757,0.00571211330479,0.0188817722469
2200000000.0,0.00587295098276,0.0197707034514,0.991704571646,-0.0883302315671,0.991704571646,-0.0883302315671,0.00587295098276,0.0197707034514
2300000000.0,0.00604087794671,0.0206582599941,0.991314441424,-0.0923321894799,0.991314441424,-0.0923321894799,0.00604087794671,0.0206582599941
2400000000.0,0.00621589265235,0.0215443831593,0.990907454251,-0.0963324162309,0.990907454251,-0.0963324162309,0.00621589265235,0.0215443831593
2500000000.0,0.00639799196129,0.0224290143149,0.990483610565,-0.100330835537,0.990483610565,-0.100330835537,0.00639799196129,0.0224290143149
2600000000.0,0.0065871712991,0.0233120949233,0.990042912183,-0.104327371035,0.990042912183,-0.104327371035,0.0065871712991,0.0233120949233
2700000000.0,0.00678342478606,0.0241935665494,0.989585362176,-0.108321946292,0.989585362176,-0.108321946292,0.00678342478606,0.0241935665494
2800000000.0,0.00698674534636,0.0250733708699,0.989110964758,-0.112314484824,0.989110964758,-0.112314484824,0.00698674534636,0.0250733708699
2900000000.0,0.00719712479981,0.0259514496798,0.988619725199,-0.116304910109,0.988619725199,-0.116304910109,0.00719712479981,0.0259514496798
3000000000.0,0.00741455393964,0.0268277449006,0.988111649744,-0.120293145594,0.988111649744,-0.120293145594,0.00741455393964,0.0268277449006
3100000000.0,0.00763902259863,0.0277021985859,0.987586745554,-0.124279114711,0.987586745554,-0.124279114711,0.00763902259863,0.0277021985859
3200000000.0,0.00787051970594,0.0285747529285,0.987045020647,-0.128262740886,0.987045020647,-0.128262740886,0.00787051970594,0.0285747529285
3300000000.0,0.00810903333608,0.0294453502658,0.986486483851,-0.132243947549,0.986486483851,-0.132243947549,0.00810903333608,0.0294453502658
3400000000.0,0.00835455075141,0.0303139330857,0.985911144763,-0.13622265814,0.985911144763,-0.13622265814,0.00835455075141,0.0303139330857
3500000000.0,0.00860705843918,0.031180444032,0.985319013716,-0.140198796123,0.985319013716,-0.140198796123,0.00860705843918,0.031180444032
3600000000.0,0.00886654214405,0.0320448259095,0.984710101742,-0.144172284989,0.984710101742,-0.144172284989,0.00886654214405,0.0320448259095
3700000000.0,0.00913298689669,0.0329070216891,0.984084420551,-0.148143048267,0.984084420551,-0.148143048267,0.00913298689669,0.0329070216891
3800000000.0,0.00940637703916,0.0337669745127,0.983441982501,-0.152111009531,0.983441982501,-0.152111009531,0.00940637703916,0.0337669745127
3900000000.0,0.00968669624744,0.034624627698,0.982782800581,-0.156076092406,0.982782800581,-0.156076092406,0.00968669624744,0.034624627698
4000000000.0,0.00997392755159,0.0354799247426,0.982106888391,-0.160038220576,0.982106888391,-0.160038220576,0.00997392755159,0.0354799247426
4100000000.0,0.0102680533539,0.0363328093294,0.981414260123,-0.163997317789,0.981414260123,-0.163997317789,0.0102680533539,0.0363328093294
4200000000.0,0.0105690554451,0.0371832253302,0.980704930548,-0.167953307866,0.980704930548,-0.167953307866,0.0105690554451,0.0371832253302
4300000000.0,0.0108769150193,0.0380311168102,0.979978915002,-0.171906114703,0.979978915002,-0.171906114703,0.0108769150193,0.0380311168102
4400000000.0,0.0111916126874,0.0388764280325,0.979236229371,-0.175855662281,0.979236229371,-0.175855662281,0.0111916126874,0.0388764280325
4500000000.0,0.0115131284892,0.0397191034619,0.978476890084,-0.17980187467,0.978476890084,-0.17980187467,0.0115131284892,0.0397191034619
4600000000.0,0.0118414419051,0.0405590877692,0.977700914101,-0.183744676035,0.977700914101,-0.183744676035,0.0118414419051,0.0405590877692
4700000000.0,0.0121765318659,0.0413963258349,0.976908318899,-0.18768399064,0.976908318899,-0.18768399064,0.0121765318659,0.0413963258349
4800000000.0,0.0125183767629,0.0422307627537,0.976099122472,-0.191619742854,0.976099122472,-0.191619742854,0.0125183767629,0.0422307627537
4900000000.0,0.0128669544568,0.0430623438377,0.975273343315,-0.195551857158,0.975273343315,-0.195551857158,0.0128669544568,0.0430623438377
5000000000.0,0.0132222422855,0.0438910146209,0.974431000424,-0.199480258147,0.974431000424,-0.199480258147,0.0132222422855,0.0438910146209
5100000000.0,0.0135842170728,0.0447167208625,0.97357211328,-0.203404870538,0.97357211328,-0.203404870538,0.0135842170728,0.0447167208625
5200000000.0,0.0139528551346,0.0455394085509,0.972696701851,-0.207325619171,0.972696701851,-0.207325619171,0.0139528551346,0.0455394085509
5300000000.0,0.0143281322869,0.0463590239075,0.971804786583,-0.211242429017,0.971804786583,-0.211242429017,0.0143281322869,0.0463590239075
5400000000.0,0.0147100238513,0.0471755133898,0.970896388391,-0.215155225181,0.970896388391,-0.215155225181,0.0147100238513,0.0471755133898
5500000000.0,0.0150985046622,0.0479888236958,0.96997152866,-0.219063932907,0.96997152866,-0.219063932907,0.0150985046622,0.0479888236958
5600000000.0,0.0154935490718,0.0487989017671,0.969030229234,-0.222968477583,0.969030229234,-0.222968477583,0.0154935490718,0.0487989017671
5700000000.0,0.0158951309563,0.0496056947926,0.968072512415,-0.226868784742,0.968072512415,-0.226868784742,0.0158951309563,0.0496056947926
5800000000.0,0.0163032237211,0.0504091502117,0.967098400957,-0.230764780072,0.967098400957,-0.230764780072,0.0163032237211,0.0504091502117
5900000000.0,0.0167178003062,0.0512092157185,0.96610791806,-0.234656389413,0.96610791806,-0.234656389413,0.0167178003062,0.0512092157185
6000000000.0,0.0171388331908,0.0520058392642,0.96510108737,-0.238543538769,0.96510108737,-0.238543538769,0.0171388331908,0.0520058392642
6100000000.0,0.0175662943986,0.0527989690616,0.964077932971,-0.242426154306,0.964077932971,-0.242426154306,0.0175662943986,0.0527989690616
6200000000.0,0.0180001555021,0.0535885535877,0.963038479381,-0.246304162357,0.963038479381,-0.246304162357,0.0180001555021,0.0535885535877
6300000000.0,0.0184403876274,0.0543745415871,0.961982751552,-0.250177489427,0.961982751552,-0.250177489427,0.0184403876274,0.0543745415871
6400000000.0,0.0188869614587,0.0551568820759,0.960910774863,-0.254046062199,0.960910774863,-0.254046062199,0.0188869614587,0.0551568820759
6500000000.0,0.0193398472426,0.0559355243442,0.959822575116,-0.257909807533,0.959822575116,-0.257909807533,0.0193398472426,0.0559355243442
6600000000.0,0.0197990147919,0.0567104179598,0.958718178535,-0.261768652471,0.958718178535,-0.261768652471,0.0197990147919,0.0567104179598
6700000000.0,0.0202644334905,0.0574815127714,0.957597611761,-0.265622524245,0.957597611761,-0.265622524245,0.0202644334905,0.0574815127714
6800000000.0,0.0207360722969,0.0582487589115,0.956460901848,-0.269471350273,0.956460901848,-0.269471350273,0.0207360722969,0.0582487589115
6900000000.0,0.0212138997486,0.0590121067999,0.955308076261,-0.273315058169,0.955308076261,-0.273315058169,0.0212138997486,0.0590121067999
7000000000.0,0.0216978839656,0.0597715071466,0.954139162874,-0.277153575745,0.954139162874,-0.277153575745,0.0216978839656,0.0597715071466
7100000000.0,0.0221879926549,0.0605269109548,0.952954189961,-0.280986831011,0.952954189961,-0.280986831011,0.0221879926549,0.0605269109548
7200000000.0,0.0226841931137,0.0612782695242,0.951753186201,-0.284814752182,0.951753186201,-0.284814752182,0.0226841931137,0.0612782695242
7300000000.0,0.0231864522338,0.0620255344537,0.950536180668,-0.28863726768,0.950536180668,-0.28863726768,0.0231864522338,0.0620255344537
7400000000.0,0.0236947365048,0.0627686576449,0.949303202832,-0.292454306137,0.949303202832,-0.292454306137,0.0236947365048,0.0627686576449
7500000000.0,0.0242090120184,0.0635075913045,0.948054282554,-0.2962657964,0.948054282554,-0.2962657964,0.0242090120184,0.0635075913045
7600000000.0,0.0247292444716,0.0642422879475,0.946789450082,-0.30007166753,0.946789450082,-0.30007166753,0.0247292444716,0.0642422879475
7700000000.0,0.0252553991707,0.0649727004002,0.945508736051,-0.303871848811,0.945508736051,-0.303871848811,0.0252553991707,0.0649727004002
7800000000.0,0.025787441035,0.0656987818026,0.944212171479,-0.307666269746,0.944212171479,-0.307666269746,0.025787441035,0.0656987818026
7900000000.0,0.0263253346001,0.0664204856119,0.942899787761,-0.311454860066,0.942899787761,-0.311454860066,0.0263253346001,0.0664204856119
8000000000.0,0.0268690440218,0.0671377656049,0.94157161667,-0.315237549731,0.94157161667,-0.315237549731,0.0268690440218,0.0671377656049
8100000000.0,0.0274185330796,0.0678505758807,0.940227690352,-0.319014268932,0.940227690352,-0.319014268932,0.0274185330796,0.0678505758807
8200000000.0,0.0279737651804,0.0685588708637,0.938868041323,-0.322784948094,0.938868041323,-0.322784948094,0.0279737651804,0.0685588708637
8300000000.0,0.0285347033618,0.069262605306,0.937492702466,-0.32654951788,0.937492702466,-0.32654951788,0.0285347033618,0.069262605306
8400000000.0,0.0291013102961,0.0699617342906,0.93610170703,-0.330307909193,0.93610170703,-0.330307909193,0.0291013102961,0.0699617342906
8500000000.0,0.0296735482935,0.0706562132333,0.934695088624,-0.334060053179,0.934695088624,-0.334060053179,0.0296735482935,0.0706562132333
8600000000.0,0.0302513793058,0.071345997886,0.933272881216,-0.337805881227,0.933272881216,-0.337805881227,0.0302513793058,0.071345997886
8700000000.0,0.0308347649299,0.0720310443388,0.931835119129,-0.341545324978,0.931835119129,-0.341545324978,0.0308347649299,0.0720310443388
8800000000.0,0.0314236664117,0.072711309023,0.930381837039,-0.345278316321,0.930381837039,-0.345278316321,0.0314236664117,0.072711309023
8900000000.0,0.0320180446488,0.0733867487132,0.928913069971,-0.349004787398,0.928913069971,-0.349004787398,0.0320180446488,0.0733867487132
9000000000.0,0.0326178601952,0.0740573205298,0.927428853297,-0.352724670609,0.927428853297,-0.352724670609,0.0326178601952,0.0740573205298
9100000000.0,0.0332230732638,0.0747229819418,0.925929222734,-0.35643789861,0.925929222734,-0.35643789861,0.0332230732638,0.0747229819418
9200000000.0,0.0338336437306,0.075383690769,0.924414214337,-0.360144404318,0.924414214337,-0.360144404318,0.0338336437306,0.075383690769
9300000000.0,0.034449531138,0.0760394051843,0.922883864501,-0.363844120914,0.922883864501,-0.363844120914,0.034449531138,0.0760394051843
9400000000.0,0.0350706946983,0.0766900837164,0.921338209954,-0.367536981843,0.921338209954,-0.367536981843,0.0350706946983,0.0766900837164
9500000000.0,0.0356970932975,0.0773356852515,0.919777287757,-0.371222920819,0.919777287757,-0.371222920819,0.0356970932975,0.0773356852515
9600000000.0,0.0363286854987,0.0779761690362,0.918201135299,-0.374901871823,0.918201135299,-0.374901871823,0.0363286854987,0.0779761690362
9700000000.0,0.0369654295455,0.0786114946796,0.916609790294,-0.378573769112,0.916609790294,-0.378573769112,0.0369654295455,0.0786114946796
9800000000.0,0.0376072833658,0.0792416221553,0.915003290782,-0.382238547213,0.915003290782,-0.382238547213,0.0376072833658,0.0792416221553
9900000000.0,0.0382542045754,0.0798665118037,0.913381675119,-0.385896140934,0.913381675119,-0.385896140934,0.0382542045754,0.0798665118037
10000000000.0,0.0389061504812,0.0804861243343,0.911744981979,-0.389546485356,0.911744981979,-0.389546485356,0.0389061504812,0.0804861243343
