freq (GHz),S11_real,S11_imag,S21_real,S21_imag,S12_real,S12_imag,S22_real,S22_imag
100000000.0,0.00271869759093,0.00144501732402,0.997268424472,-0.00546331947469,0.997268424472,-0.00546331947469,0.00271869759093,0.00144501732402
200000000.0,0.00275871130323,0.002889607845,0.99720036987,-0.0109262803828,0.99720036987,-0.0109262803828,0.00275871130323,0.002889607845
300000000.0,0.00280982246191,0.00433368599635,0.997105052055,-0.0163888265896,0.997105052055,-0.0163888265896,0.00280982246191,0.00433368599635
400000000.0,0.0028743725487,0.00577710316085,0.996980125821,-0.0218508217261,0.996980125821,-0.0218508217261,0.0028743725487,0.00577710316085
500000000.0,0.00295325733041,0.0072196969716,0.996824690908,-0.027312106813,0.996824690908,-0.027312106813,0.00295325733041,0.0072196969716
600000000.0,0.00304692777163,0.00866129945454,0.996638291177,-0.0327725113498,0.996638291177,-0.0327725113498,0.00304692777163,0.00866129945454
700000000.0,0.00315564435062,0.0101017398992,0.996420660368,-0.0382318577004,0.996420660368,-0.0382318577004,0.00315564435062,0.0101017398992
800000000.0,0.00327956983147,0.0115408461672,0.996171629379,-0.0436899633142,0.996171629379,-0.0436899633142,0.00327956983147,0.0115408461672
900000000.0,0.00341881055192,0.0129784453847,0.995891085024,-0.0491466420253,0.995891085024,-0.0491466420253,0.00341881055192,0.0129784453847
1000000000.0,0.0035734373425,0.0144143643469,0.995578949152,-0.0546017048868,0.995578949152,-0.0546017048868,0.0035734373425,0.0144143643469
1100000000.0,0.00374349715145,0.015848429774,0.995235167051,-0.0600549607461,0.995235167051,-0.0600549607461,0.00374349715145,0.015848429774
1200000000.0,0.00392901997032,0.0172804684819,0.994859700556,-0.0655062166611,0.994859700556,-0.0655062166611,0.00392901997032,0.0172804684819
1300000000.0,0.00413002319116,0.0187103075028,0.994452523715,-0.0709552782163,0.994452523715,-0.0709552782163,0.00413002319115,0.0187103075028
1400000000.0,0.00434651447131,0.0201377741738,0.994013619944,-0.0764019497685,0.994013619944,-0.0764019497685,0.00434651447131,0.0201377741738
1500000000.0,0.0045784936868,0.0215626962047,0.993542980099,-0.0818460346458,0.993542980099,-0.0818460346458,0.0045784936868,0.0215626962047
1600000000.0,0.00482595430576,0.0229849017318,0.993040601121,-0.0872873353107,0.993040601121,-0.0872873353107,0.00482595430576,0.0229849017318
1700000000.0,0.00508888437985,0.0244042193622,0.992506485057,-0.0927256534973,0.992506485057,-0.0927256534973,0.00508888437985,0.0244042193622
1800000000.0,0.00536726727661,0.0258204782104,0.991940638351,-0.0981607903286,0.991940638351,-0.0981607903286,0.00536726727661,0.0258204782104
1900000000.0,0.00566108223134,0.0272335079313,0.991343071301,-0.103592546419,0.991343071301,-0.103592546419,0.00566108223134,0.0272335079313
2000000000.0,0.00597030477071,0.0286431387482,0.990713797651,-0.109020721962,0.990713797651,-0.109020721962,0.00597030477071,0.0286431387482
2100000000.0,0.0062949070432,0.0300492014787,0.990052834277,-0.114445116815,0.990052834277,-0.114445116815,0.0062949070432,0.0300492014787
2200000000.0,0.00663485808073,0.0314515275588,0.989360200933,-0.119865530565,0.989360200933,-0.119865530565,0.00663485808073,0.0314515275588
2300000000.0,0.00699012400874,0.0328499490648,0.988635920053,-0.125281762596,0.988635920053,-0.125281762596,0.00699012400874,0.0328499490648
2400000000.0,0.00736066821706,0.0342442987345,0.987880016593,-0.130693612154,0.987880016593,-0.130693612154,0.00736066821706,0.0342442987345
2500000000.0,0.00774645150052,0.0356344099873,0.987092517902,-0.136100878392,0.987092517902,-0.136100878392,0.00774645150052,0.0356344099873
2600000000.0,0.00814743217609,0.0370201169433,0.986273453608,-0.141503360431,0.986273453608,-0.141503360431,0.00814743217609,0.0370201169433
2700000000.0,0.00856356618156,0.0384012544422,0.985422855535,-0.146900857402,0.985422855535,-0.146900857402,0.00856356618156,0.0384012544422
2800000000.0,0.00899480715941,0.0397776580615,0.984540757624,-0.152293168493,0.984540757624,-0.152293168493,0.00899480715941,0.0397776580615
2900000000.0,0.00944110652906,0.0411491641343,0.983627195874,-0.15768009299,0.983627195874,-0.15768009299,0.00944110652906,0.0411491641343
3000000000.0,0.00990241354949,0.0425156097668,0.982682208278,-0.163061430317,0.982682208278,-0.163061430317,0.00990241354949,0.0425156097668
3100000000.0,0.0103786753743,0.0438768328558,0.981705834785,-0.168436980077,0.981705834785,-0.168436980077,0.0103786753743,0.0438768328558
3200000000.0,0.0108698371003,0.045232672105,0.980698117254,-0.173806542085,0.980698117254,-0.173806542085,0.0108698371003,0.045232672105
3300000000.0,0.0113758418111,0.0465829670428,0.979659099418,-0.179169916402,0.979659099418,-0.179169916402,0.0113758418111,0.0465829670428
3400000000.0,0.0118966306163,0.0479275580381,0.978588826851,-0.184526903373,0.978588826851,-0.184526903373,0.0118966306163,0.0479275580381
3500000000.0,0.0124321426868,0.0492662863169,0.977487346938,-0.189877303653,0.977487346938,-0.189877303653,0.0124321426868,0.0492662863169
3600000000.0,0.0129823152882,0.0505989939789,0.976354708851,-0.195220918243,0.976354708851,-0.195220918243,0.0129823152882,0.0505989939789
3700000000.0,0.0135470838102,0.0519255240134,0.975190963522,-0.200557548514,0.975190963522,-0.200557548514,0.0135470838102,0.0519255240134
3800000000.0,0.0141263817952,0.0532457203153,0.973996163623,-0.205886996242,0.973996163623,-0.205886996242,0.0141263817952,0.0532457203153
3900000000.0,0.0147201409643,0.0545594277012,0.97277036354,-0.21120906363,0.97277036354,-0.21120906363,0.0147201409643,0.0545594277012
4000000000.0,0.0153282912426,0.0558664919246,0.97151361936,-0.216523553341,0.97151361936,-0.216523553341,0.0153282912426,0.0558664919246
4100000000.0,0.0159507607823,0.0571667596924,0.970225988848,-0.221830268516,0.970225988848,-0.221830268516,0.0159507607823,0.0571667596924
4200000000.0,0.0165874759854,0.0584600786795,0.96890753143,-0.227129012807,0.96890753143,-0.227129012807,0.0165874759854,0.0584600786795
4300000000.0,0.0172383615255,0.0597462975449,0.967558308175,-0.232419590397,0.967558308175,-0.232419590397,0.0172383615255,0.0597462975449
4400000000.0,0.0179033403684,0.0610252659463,0.966178381783,-0.237701806027,0.966178381783,-0.237701806027,0.0179033403684,0.0610252659463
4500000000.0,0.0185823337925,0.0622968345558,0.964767816562,-0.242975465016,0.964767816562,-0.242975465016,0.0185823337925,0.0622968345558
4600000000.0,0.0192752614083,0.0635608550745,0.963326678421,-0.248240373286,0.963326678421,-0.248240373286,0.0192752614083,0.0635608550745
4700000000.0,0.0199820411777,0.0648171802474,0.961855034846,-0.253496337385,0.961855034846,-0.253496337385,0.0199820411777,0.0648171802474
4800000000.0,0.0207025894327,0.0660656638784,0.960352954891,-0.258743164506,0.960352954891,-0.258743164506,0.0207025894327,0.0660656638784
4900000000.0,0.021436820894,0.0673061608442,0.958820509162,-0.263980662509,0.958820509162,-0.263980662509,0.021436820894,0.0673061608442
5000000000.0,0.0221846486888,0.0685385271097,0.957257769803,-0.269208639944,0.957257769803,-0.269208639944,0.0221846486888,0.0685385271097
5100000000.0,0.0229459843693,0.0697626197412,0.955664810478,-0.274426906066,0.955664810478,-0.274426906066,0.0229459843693,0.0697626197412
5200000000.0,0.0237207379299,0.0709782969216,0.95404170636,-0.27963527086,0.95404170636,-0.27963527086,0.0237207379299,0.0709782969216
5300000000.0,0.0245088178252,0.0721854179635,0.952388534119,-0.284833545059,0.952388534119,-0.284833545059,0.0245088178252,0.0721854179635
5400000000.0,0.0253101309872,0.0733838433235,0.950705371902,-0.29002154016,0.950705371902,-0.29002154016,0.0253101309872,0.0733838433235
5500000000.0,0.0261245828427,0.0745734346156,0.948992299322,-0.295199068443,0.948992299322,-0.295199068443,0.0261245828427,0.0745734346156
5600000000.0,0.0269520773307,0.0757540546252,0.947249397445,-0.300365942992,0.947249397445,-0.300365942992,0.0269520773307,0.0757540546252
5700000000.0,0.0277925169193,0.0769255673217,0.945476748771,-0.305521977711,0.945476748771,-0.305521977711,0.0277925169193,0.0769255673217
5800000000.0,0.0286458026231,0.0780878378722,0.943674437228,-0.310666987339,0.943674437228,-0.310666987339,0.0286458026231,0.0780878378722
5900000000.0,0.0295118340202,0.0792407326545,0.941842548148,-0.315800787469,0.941842548148,-0.315800787469,0.0295118340202,0.0792407326545
6000000000.0,0.0303905092695,0.0803841192696,0.93998116826,-0.320923194565,0.93998116826,-0.320923194565,0.0303905092695,0.0803841192696
6100000000.0,0.0312817251274,0.0815178665547,0.938090385671,-0.326034025974,0.938090385671,-0.326034025974,0.0312817251274,0.0815178665547
6200000000.0,0.0321853769652,0.0826418445953,0.936170289856,-0.331133099947,0.936170289856,-0.331133099947,0.0321853769652,0.0826418445953
6300000000.0,0.033101358786,0.0837559247378,0.93422097164,-0.336220235652,0.93422097164,-0.336220235652,0.033101358786,0.0837559247378
6400000000.0,0.0340295632419,0.0848599796018,0.932242523183,-0.341295253185,0.932242523183,-0.341295253185,0.0340295632419,0.0848599796018
6500000000.0,0.0349698816512,0.0859538830913,0.930235037967,-0.346357973593,0.930235037967,-0.346357973593,0.0349698816512,0.0859538830913
6600000000.0,0.0359222040153,0.0870375104072,0.928198610784,-0.351408218879,0.928198610784,-0.351408218879,0.0359222040153,0.0870375104072
6700000000.0,0.0368864190361,0.0881107380584,0.926133337713,-0.356445812024,0.926133337713,-0.356445812024,0.0368864190361,0.0881107380584
6800000000.0,0.0378624141329,0.0891734438732,0.924039316115,-0.361470576995,0.924039316115,-0.361470576995,0.0378624141329,0.0891734438732
6900000000.0,0.0388500754601,0.0902255070108,0.92191664461,-0.366482338761,0.92191664461,-0.366482338761,0.0388500754601,0.0902255070108
7000000000.0,0.0398492879241,0.0912668079718,0.919765423066,-0.371480923303,0.919765423066,-0.371480923303,0.0398492879241,0.0912668079718
7100000000.0,0.0408599352006,0.0922972286092,0.917585752585,-0.376466157631,0.917585752585,-0.376466157631,0.0408599352006,0.0922972286092
7200000000.0,0.041881899752,0.0933166521391,0.915377735482,-0.381437869794,0.915377735482,-0.381437869794,0.041881899752,0.0933166521391
7300000000.0,0.042915062845,0.0943249631507,0.913141475278,-0.386395888889,0.913141475278,-0.386395888889,0.042915062845,0.0943249631507
7400000000.0,0.0439593045676,0.0953220476168,0.910877076675,-0.391340045079,0.910877076675,-0.391340045079,0.0439593045676,0.0953220476168
7500000000.0,0.0450145038469,0.0963077929037,0.908584645551,-0.396270169599,0.908584645551,-0.396270169599,0.0450145038469,0.0963077929037
7600000000.0,0.0460805384664,0.0972820877808,0.906264288936,-0.40118609477,0.906264288936,-0.40118609477,0.0460805384664,0.0972820877808
7700000000.0,0.0471572850836,0.0982448224304,0.903916115,-0.406087654006,0.903916115,-0.406087654006,0.0471572850836,0.0982448224304
7800000000.0,0.0482446192474,0.0991958884568,0.901540233037,-0.41097468183,0.901540233037,-0.41097468183,0.0482446192474,0.0991958884568
7900000000.0,0.0493424154159,0.100135178896,0.89913675345,-0.41584701388,0.89913675345,-0.41584701388,0.0493424154159,0.100135178896
8000000000.0,0.050450546974,0.101062588222,0.896705787735,-0.420704486921,0.896705787735,-0.420704486921,0.050450546974,0.101062588222
8100000000.0,0.051568886251,0.101978012362,0.894247448463,-0.425546938851,0.894247448463,-0.425546938851,0.051568886251,0.101978012362
8200000000.0,0.0526973045382,0.102881348697,0.891761849267,-0.430374208716,0.891761849267,-0.430374208716,0.0526973045382,0.102881348697
8300000000.0,0.0538356721066,0.103772496074,0.889249104826,-0.435186136714,0.889249104826,-0.435186136714,0.0538356721066,0.103772496074
8400000000.0,0.0549838582251,0.104651354816,0.886709330845,-0.439982564205,0.886709330845,-0.439982564205,0.0549838582251,0.104651354816
8500000000.0,0.0561417311777,0.105517826726,0.884142644045,-0.444763333721,0.884142644045,-0.444763333721,0.0561417311777,0.105517826726
8600000000.0,0.0573091582813,0.106371815097,0.881549162143,-0.449528288973,0.881549162143,-0.449528288973,0.0573091582813,0.106371815097
8700000000.0,0.0584860059041,0.107213224718,0.878929003835,-0.454277274858,0.878929003835,-0.454277274858,0.0584860059041,0.107213224718
8800000000.0,0.0596721394827,0.108041961882,0.876282288784,-0.459010137467,0.876282288784,-0.459010137467,0.0596721394827,0.108041961882
8900000000.0,0.0608674235406,0.108857934396,0.873609137601,-0.463726724095,0.873609137601,-0.463726724095,0.0608674235406,0.108857934396
9000000000.0,0.0620717217055,0.109661051582,0.87090967183,-0.468426883242,0.87090967183,-0.468426883242,0.0620717217055,0.109661051582
9100000000.0,0.0632848967274,0.110451224287,0.868184013928,-0.473110464626,0.868184013928,-0.473110464626,0.0632848967274,0.110451224287
9200000000.0,0.0645068104969,0.11122836489,0.865432287257,-0.477777319187,0.865432287257,-0.477777319187,0.0645068104969,0.11122836489
9300000000.0,0.0657373240621,0.111992387307,0.862654616058,-0.482427299091,0.862654616058,-0.482427299091,0.0657373240621,0.111992387307
9400000000.0,0.0669762976474,0.112743206995,0.859851125442,-0.487060257739,0.859851125442,-0.487060257739,0.0669762976474,0.112743206995
9500000000.0,0.0682235906711,0.113480740964,0.857021941371,-0.491676049771,0.857021941371,-0.491676049771,0.0682235906711,0.113480740964
9600000000.0,0.0694790617632,0.114204907775,0.854167190641,-0.496274531074,0.854167190641,-0.496274531074,0.0694790617632,0.114204907775
9700000000.0,0.0707425687833,0.114915627551,0.851287000867,-0.500855558782,0.851287000867,-0.500855558782,0.0707425687833,0.114915627551
9800000000.0,0.0720139688385,0.115612821979,0.848381500465,-0.505418991286,0.848381500465,-0.505418991286,0.0720139688385,0.115612821979
9900000000.0,0.0732931183014,0.116296414316,0.84545081864,-0.509964688235,0.84545081864,-0.509964688235,0.0732931183014,0.116296414316
10000000000.0,0.0745798728279,0.116966329394,0.842495085364,-0.514492510545,0.842495085364,-0.514492510545,0.0745798728279,0.116966329394
