freq (GHz),S11_real,S11_imag,S21_real,S21_imag,S12_real,S12_imag,S22_real,S22_imag
100000000.0,0.000302794191241,-0.00295807771936,0.999658323719,-0.00483523719601,0.999658323719,-0.00483523719601,0.000302794191241,-0.00295807771936
200000000.0,0.000258297678796,-0.00591595250226,0.999604193643,-0.00967031961491,0.999604193643,-0.00967031961491,0.000258297678795,-0.00591595250226
300000000.0,0.000184634079195,-0.00887338134947,0.999518487183,-0.0145050456276,0.999518487183,-0.0145050456276,0.000184634079195,-0.00887338134947
400000000.0,8.20840454212e-05,-0.0118301016079,0.999400929162,-0.0193391827518,0.999400929162,-0.0193391827518,8.20840454212e-05,-0.0118301016079
500000000.0,-4.92398771214e-05,-0.01478583987,0.999251417933,-0.0241724832954,0.999251417933,-0.0241724832954,-4.9239877121e-05,-0.01478583987
600000000.0,-0.000209274405324,-0.0177403154617,0.999069907122,-0.0290046896203,0.999069907122,-0.0290046896203,-0.000209274405324,-0.0177403154617
700000000.0,-0.000397975216042,-0.0206932423075,0.998856375753,-0.0338355368301,0.998856375753,-0.0338355368301,-0.000397975216043,-0.0206932423075
800000000.0,-0.000615305817729,-0.0236443300961,0.998610817442,-0.0386647544001,0.998610817442,-0.0386647544001,-0.000615305817729,-0.0236443300961
900000000.0,-0.000861232544707,-0.0265932850849,0.998333235655,-0.0434920672765,0.998333235655,-0.0434920672765,-0.000861232544706,-0.0265932850849
1000000000.0,-0.00113572198185,-0.0295398106938,0.998023641351,-0.0483171966715,0.998023641351,-0.0483171966715,-0.00113572198185,-0.0295398106938
1100000000.0,-0.00143873950408,-0.0324836079686,0.997682051703,-0.0531398606716,0.997682051703,-0.0531398606716,-0.00143873950408,-0.0324836079686
1200000000.0,-0.00177024838381,-0.0354243759558,0.997308489364,-0.0579597747214,0.997308489364,-0.0579597747214,-0.00177024838381,-0.0354243759558
1300000000.0,-0.00213020921213,-0.0383618120182,0.996902982024,-0.0627766520233,0.996902982024,-0.0627766520233,-0.00213020921213,-0.0383618120182
1400000000.0,-0.00251857950491,-0.0412956121054,0.996465562136,-0.0675902038747,0.996465562136,-0.0675902038747,-0.00251857950491,-0.0412956121054
1500000000.0,-0.00293531342396,-0.0442254709923,0.995996266735,-0.0724001399616,0.995996266735,-0.0724001399616,-0.00293531342396,-0.0442254709923
1600000000.0,-0.00338036157328,-0.0471510824935,0.995495137329,-0.0772061686165,0.995495137329,-0.0772061686165,-0.00338036157328,-0.0471510824935
1700000000.0,-0.00385367084621,-0.0500721396571,0.994962219817,-0.0820079970507,0.994962219817,-0.0820079970507,-0.00385367084621,-0.0500721396571
1800000000.0,-0.00435518430856,-0.0529883349447,0.994397564442,-0.0868053315652,0.994397564442,-0.0868053315652,-0.00435518430856,-0.0529883349447
1900000000.0,-0.00488484110782,-0.0558993603978,0.993801225754,-0.0915978777453,0.993801225754,-0.0915978777453,-0.00488484110782,-0.0558993603978
2000000000.0,-0.00544257640215,-0.0588049077954,0.993173262585,-0.0963853406405,0.993173262585,-0.0963853406405,-0.00544257640215,-0.0588049077954
2100000000.0,-0.00602832130451,-0.0617046688019,0.992513738033,-0.101167424934,0.992513738033,-0.101167424934,-0.00602832130451,-0.0617046688019
2200000000.0,-0.00664200283891,-0.0645983351091,0.991822719446,-0.105943835101,0.991822719446,-0.105943835101,-0.00664200283891,-0.0645983351091
2300000000.0,-0.00728354390655,-0.0674855985715,0.991100278411,-0.110714275564,0.991100278411,-0.110714275564,-0.00728354390655,-0.0674855985715
2400000000.0,-0.00795286326014,-0.0703661513364,0.990346490742,-0.115478450831,0.990346490742,-0.115478450831,-0.00795286326014,-0.0703661513364
2500000000.0,-0.00864987548518,-0.0732396859699,0.989561436469,-0.120236065639,0.989561436469,-0.120236065639,-0.00864987548518,-0.0732396859699
2600000000.0,-0.00937449098737,-0.0761058955782,0.988745199831,-0.124986825086,0.988745199831,-0.124986825086,-0.00937449098737,-0.0761058955782
2700000000.0,-0.0101266159853,-0.0789644739261,0.987897869256,-0.129730434757,0.987897869256,-0.129730434757,-0.0101266159853,-0.0789644739261
2800000000.0,-0.010906152508,-0.0818151155514,0.987019537353,-0.134466600851,0.987019537353,-0.134466600851,-0.010906152508,-0.0818151155514
2900000000.0,-0.0117129983966,-0.084657515877,0.986110300894,-0.139195030302,0.986110300894,-0.139195030302,-0.0117129983966,-0.084657515877
3000000000.0,-0.0125470473103,-0.0874913713198,0.985170260797,-0.143915430891,0.985170260797,-0.143915430891,-0.0125470473103,-0.0874913713198
3100000000.0,-0.0134081887357,-0.0903163793973,0.984199522108,-0.148627511364,0.984199522108,-0.148627511364,-0.0134081887357,-0.0903163793973
3200000000.0,-0.0142963079996,-0.0931322388316,0.983198193979,-0.153330981542,0.983198193979,-0.153330981542,-0.0142963079996,-0.0931322388316
3300000000.0,-0.0152112862854,-0.0959386496514,0.982166389644,-0.158025552429,0.982166389644,-0.158025552429,-0.0152112862854,-0.0959386496514
3400000000.0,-0.0161530006516,-0.0987353132912,0.981104226397,-0.162710936313,0.981104226397,-0.162710936313,-0.0161530006516,-0.0987353132912
3500000000.0,-0.0171213240544,-0.101521932689,0.980011825561,-0.167386846877,0.980011825561,-0.167386846877,-0.0171213240544,-0.101521932689
3600000000.0,-0.0181161253719,-0.104298212383,0.978889312462,-0.172052999291,0.978889312462,-0.172052999291,-0.0181161253719,-0.104298212383
3700000000.0,-0.0191372694318,-0.107063858603,0.977736816396,-0.176709110315,0.977736816396,-0.176709110315,-0.0191372694318,-0.107063858603
3800000000.0,-0.0201846170408,-0.109818579363,0.976554470597,-0.181354898391,0.976554470597,-0.181354898391,-0.0201846170408,-0.109818579363
3900000000.0,-0.0212580250171,-0.112562084551,0.975342412202,-0.185990083742,0.975342412202,-0.185990083742,-0.0212580250171,-0.112562084551
4000000000.0,-0.0223573462248,-0.115294086016,0.974100782211,-0.190614388456,0.974100782211,-0.190614388456,-0.0223573462248,-0.115294086016
4100000000.0,-0.0234824296105,-0.118014297657,0.972829725453,-0.195227536584,0.972829725453,-0.195227536584,-0.0234824296105,-0.118014297657
4200000000.0,-0.0246331202425,-0.120722435503,0.97152939054,-0.19982925422,0.97152939054,-0.19982925422,-0.0246331202425,-0.120722435503
4300000000.0,-0.0258092593511,-0.123418217796,0.970199929828,-0.204419269589,0.970199929828,-0.204419269589,-0.0258092593511,-0.123418217796
4400000000.0,-0.027010684372,-0.126101365075,0.968841499372,-0.20899731313,0.968841499372,-0.20899731313,-0.027010684372,-0.126101365075
4500000000.0,-0.0282372289909,-0.12877160025,0.967454258876,-0.213563117579,0.967454258876,-0.213563117579,-0.0282372289909,-0.12877160025
4600000000.0,-0.0294887231901,-0.131428648683,0.966038371652,-0.218116418045,0.966038371652,-0.218116418045,-0.0294887231901,-0.131428648683
4700000000.0,-0.030764993297,-0.134072238261,0.964594004562,-0.222656952091,0.964594004562,-0.222656952091,-0.030764993297,-0.134072238261
4800000000.0,-0.0320658620339,-0.136702099466,0.963121327976,-0.227184459806,0.963121327976,-0.227184459806,-0.0320658620339,-0.136702099466
4900000000.0,-0.0333911485704,-0.139317965453,0.96162051571,-0.23169868388,0.96162051571,-0.23169868388,-0.0333911485704,-0.139317965453
5000000000.0,-0.0347406685759,-0.141919572115,0.96009174498,-0.236199369675,0.96009174498,-0.236199369675,-0.0347406685759,-0.141919572115
5100000000.0,-0.0361142342751,-0.144506658152,0.95853519634,-0.240686265296,0.95853519634,-0.240686265296,-0.0361142342751,-0.144506658152
5200000000.0,-0.037511654504,-0.147078965137,0.956951053629,-0.245159121657,0.956951053629,-0.245159121657,-0.037511654504,-0.147078965137
5300000000.0,-0.0389327347678,-0.149636237578,0.955339503911,-0.249617692546,0.955339503911,-0.249617692546,-0.0389327347678,-0.149636237578
5400000000.0,-0.0403772772996,-0.152178222983,0.953700737413,-0.25406173469,0.953700737413,-0.25406173469,-0.0403772772996,-0.152178222983
5500000000.0,-0.0418450811212,-0.154704671919,0.952034947471,-0.258491007817,0.952034947471,-0.258491007817,-0.0418450811212,-0.154704671919
5600000000.0,-0.0433359421043,-0.157215338071,0.95034233046,-0.262905274716,0.95034233046,-0.262905274716,-0.0433359421043,-0.157215338071
5700000000.0,-0.0448496530332,-0.159709978296,0.948623085734,-0.267304301291,0.948623085734,-0.267304301291,-0.0448496530332,-0.159709978296
5800000000.0,-0.046386003669,-0.162188352681,0.946877415563,-0.271687856621,0.946877415563,-0.271687856621,-0.046386003669,-0.162188352681
5900000000.0,-0.047944780814,-0.164650224595,0.945105525065,-0.276055713015,0.945105525065,-0.276055713015,-0.047944780814,-0.164650224595
6000000000.0,-0.0495257683779,-0.167095360738,0.943307622143,-0.280407646058,0.943307622143,-0.280407646058,-0.0495257683779,-0.167095360738
6100000000.0,-0.0511287474443,-0.16952353119,0.941483917414,-0.284743434666,0.941483917414,-0.284743434666,-0.0511287474443,-0.16952353119
6200000000.0,-0.0527534963387,-0.171934509461,0.939634624142,-0.289062861133,0.939634624142,-0.289062861133,-0.0527534963387,-0.171934509461
6300000000.0,-0.0543997906968,-0.174328072534,0.937759958171,-0.293365711177,0.937759958171,-0.293365711177,-0.0543997906968,-0.174328072534
6400000000.0,-0.0560674035339,-0.176704000908,0.935860137854,-0.29765177398,0.935860137854,-0.29765177398,-0.0560674035339,-0.176704000908
6500000000.0,-0.0577561053147,-0.179062078641,0.933935383981,-0.30192084224,0.933935383981,-0.30192084224,-0.0577561053147,-0.179062078641
6600000000.0,-0.0594656640242,-0.181402093385,0.93198591971,-0.306172712199,0.93198591971,-0.306172712199,-0.0594656640242,-0.181402093385
6700000000.0,-0.0611958452387,-0.183723836431,0.930011970495,-0.31040718369,0.930011970495,-0.31040718369,-0.0611958452387,-0.183723836431
6800000000.0,-0.062946412198,-0.186027102738,0.928013764014,-0.314624060171,0.928013764014,-0.314624060171,-0.062946412198,-0.186027102738
6900000000.0,-0.0647171258773,-0.18831169097,0.925991530094,-0.318823148759,0.925991530094,-0.318823148759,-0.0647171258773,-0.18831169097
7000000000.0,-0.0665077450603,-0.190577403527,0.923945500641,-0.323004260259,0.923945500641,-0.323004260259,-0.0665077450603,-0.190577403527
7100000000.0,-0.0683180264121,-0.192824046575,0.921875909566,-0.327167209203,0.921875909566,-0.327167209203,-0.0683180264121,-0.192824046575
7200000000.0,-0.070147724553,-0.195051430073,0.919782992707,-0.331311813869,0.919782992707,-0.331311813869,-0.070147724553,-0.195051430073
7300000000.0,-0.0719965921321,-0.197259367803,0.91766698776,-0.335437896315,0.91766698776,-0.335437896315,-0.0719965921321,-0.197259367803
7400000000.0,-0.0738643799016,-0.199447677389,0.915528134203,-0.339545282398,0.915528134203,-0.339545282398,-0.0738643799016,-0.199447677389
7500000000.0,-0.0757508367909,-0.201616180324,0.913366673218,-0.343633801804,0.913366673218,-0.343633801804,-0.0757508367909,-0.201616180324
7600000000.0,-0.077655709981,-0.203764701989,0.911182847623,-0.347703288062,0.911182847623,-0.347703288062,-0.077655709981,-0.203764701989
7700000000.0,-0.079578744979,-0.205893071671,0.90897690179,-0.351753578565,0.90897690179,-0.351753578565,-0.079578744979,-0.205893071671
7800000000.0,-0.0815196856931,-0.208001122581,0.906749081573,-0.355784514593,0.906749081573,-0.355784514593,-0.0815196856931,-0.208001122581
7900000000.0,-0.0834782745065,-0.210088691869,0.904499634234,-0.359795941319,0.904499634234,-0.359795941319,-0.0834782745065,-0.210088691869
8000000000.0,-0.0854542523526,-0.212155620638,0.902228808368,-0.363787707831,0.902228808368,-0.363787707831,-0.0854542523526,-0.212155620638
8100000000.0,-0.087447358789,-0.214201753956,0.899936853826,-0.367759667138,0.899936853826,-0.367759667138,-0.087447358789,-0.214201753956
8200000000.0,-0.0894573320722,-0.216226940863,0.897624021642,-0.371711676187,0.897624021642,-0.371711676187,-0.0894573320722,-0.216226940863
8300000000.0,-0.0914839092317,-0.218231034384,0.895290563956,-0.375643595862,0.895290563956,-0.375643595862,-0.0914839092317,-0.218231034384
8400000000.0,-0.0935268261436,-0.220213891532,0.892936733945,-0.379555290999,0.892936733945,-0.379555290999,-0.0935268261436,-0.220213891532
8500000000.0,-0.095585817605,-0.222175373314,0.890562785743,-0.383446630387,0.890562785743,-0.383446630387,-0.095585817605,-0.222175373314
8600000000.0,-0.0976606174069,-0.224115344733,0.88816897437,-0.387317486773,0.88816897437,-0.387317486773,-0.0976606174069,-0.224115344733
8700000000.0,-0.0997509584075,-0.226033674791,0.885755555659,-0.39116773686,0.885755555659,-0.39116773686,-0.0997509584075,-0.226033674791
8800000000.0,-0.101856572605,-0.22793023649,0.883322786179,-0.394997261313,0.883322786179,-0.394997261313,-0.101856572605,-0.22793023649
8900000000.0,-0.10397719121,-0.229804906826,0.880870923169,-0.39880594475,0.880870923169,-0.39880594475,-0.10397719121,-0.229804906826
9000000000.0,-0.106112544717,-0.23165756679,0.878400224459,-0.402593675745,0.878400224459,-0.402593675745,-0.106112544717,-0.23165756679
9100000000.0,-0.108262362976,-0.233488101361,0.875910948402,-0.406360346821,0.875910948402,-0.406360346821,-0.108262362976,-0.233488101361
9200000000.0,-0.110426375263,-0.235296399499,0.873403353802,-0.410105854441,0.873403353802,-0.410105854441,-0.110426375263,-0.235296399499
9300000000.0,-0.112604310353,-0.23708235414,0.870877699842,-0.413830099003,0.870877699842,-0.413830099003,-0.112604310353,-0.23708235414
9400000000.0,-0.114795896584,-0.238845862184,0.868334246015,-0.417532984831,0.868334246015,-0.417532984831,-0.114795896584,-0.238845862184
9500000000.0,-0.117000861932,-0.240586824484,0.865773252055,-0.421214420162,0.865773252055,-0.421214420162,-0.117000861932,-0.240586824484
9600000000.0,-0.119218934077,-0.242305145835,0.863194977866,-0.424874317133,0.863194977866,-0.424874317133,-0.119218934077,-0.242305145835
9700000000.0,-0.121449840471,-0.244000734962,0.860599683456,-0.42851259177,0.860599683456,-0.42851259177,-0.121449840471,-0.244000734962
9800000000.0,-0.123693308405,-0.245673504499,0.857987628866,-0.432129163972,0.857987628866,-0.432129163972,-0.123693308405,-0.245673504499
9900000000.0,-0.125949065075,-0.247323370981,0.855359074108,-0.435723957493,0.855359074108,-0.435723957493,-0.125949065075,-0.247323370981
10000000000.0,-0.128216837649,-0.248950254818,0.852714279096,-0.439296899926,0.852714279096,-0.439296899926,-0.128216837649,-0.248950254818
