freq (GHz),S11_real,S11_imag,S21_real,S21_imag,S12_real,S12_imag,S22_real,S22_imag
100000000.0,0.000702261437399,-0.000577070483706,0.999292406887,-0.00156332002297,0.999292406887,-0.00156332002297,0.000702261437399,-0.000577070483706
200000000.0,0.00070326665233,-0.00115414465067,0.999282487601,-0.00312662788502,0.999282487601,-0.00312662788502,0.00070326665233,-0.00115414465067
300000000.0,0.000701232903352,-0.00173121525451,0.999271024842,-0.00468992493748,0.999271024842,-0.00468992493748,0.000701232903352,-0.00173121525451
400000000.0,0.000696769972302,-0.00230827690556,0.999257408793,-0.00625320919993,0.999257408793,-0.00625320919993,0.000696769972302,-0.00230827690556
500000000.0,0.000690112321672,-0.00288532449276,0.999241404964,-0.00781647767593,0.999241404964,-0.00781647767593,0.000690112321672,-0.00288532449276
600000000.0,0.000681379342744,-0.00346235296917,0.999222893955,-0.00937972682641,0.999222893955,-0.00937972682641,0.000681379342744,-0.00346235296917
700000000.0,0.000670641461177,-0.00403935728966,0.999201805345,-0.0109429527632,0.999201805345,-0.0109429527632,0.000670641461178,-0.00403935728966
800000000.0,0.000657944245789,-0.00461633238889,0.999178093589,-0.0125061513497,0.999178093589,-0.0125061513497,0.000657944245789,-0.00461633238889
900000000.0,0.000643319135371,-0.00519327317341,0.999151727295,-0.0140693182605,0.999151727295,-0.0140693182605,0.000643319135371,-0.00519327317341
1000000000.0,0.000626788872046,-0.00577017451872,0.999122683786,-0.0156324490204,0.999122683786,-0.0156324490204,0.000626788872045,-0.00577017451872
1100000000.0,0.000608370519585,-0.00634703126939,0.999090946089,-0.0171955390314,0.999090946089,-0.0171955390314,0.000608370519585,-0.00634703126939
1200000000.0,0.00058807726073,-0.00692383823975,0.999056501137,-0.0187585835919,0.999056501137,-0.0187585835919,0.00058807726073,-0.00692383823975
1300000000.0,0.000565919527236,-0.0075005902151,0.999019338636,-0.0203215779118,0.999019338636,-0.0203215779118,0.000565919527236,-0.0075005902151
1400000000.0,0.000541905742187,-0.00807728195337,0.998979450331,-0.0218845171236,0.998979450331,-0.0218845171236,0.000541905742187,-0.00807728195337
1500000000.0,0.000516042825511,-0.00865390818639,0.998936829493,-0.0234473962918,0.998936829493,-0.0234473962918,0.000516042825511,-0.00865390818639
1600000000.0,0.000488336548817,-0.00923046362148,0.99889147057,-0.02501021042,0.99889147057,-0.02501021042,0.000488336548817,-0.00923046362148
1700000000.0,0.000458791790952,-0.00980694294267,0.998843368933,-0.0265729544571,0.998843368933,-0.0265729544571,0.000458791790952,-0.00980694294267
1800000000.0,0.000427412726219,-0.010383340812,0.998792520683,-0.0281356233021,0.998792520683,-0.0281356233021,0.000427412726219,-0.010383340812
1900000000.0,0.000394202965668,-0.0109596518709,0.998738922515,-0.0296982118092,0.998738922515,-0.0296982118092,0.000394202965668,-0.0109596518709
2000000000.0,0.000359165665031,-0.0115358707409,0.99868257161,-0.0312607147905,0.99868257161,-0.0312607147905,0.000359165665031,-0.0115358707409
2100000000.0,0.000322303608371,-0.0121119920249,0.998623465549,-0.0328231270199,0.998623465549,-0.0328231270199,0.000322303608371,-0.0121119920249
2200000000.0,0.000283619273845,-0.0126880103082,0.998561602251,-0.0343854432355,0.998561602251,-0.0343854432355,0.000283619273845,-0.0126880103082
2300000000.0,0.000243114885996,-0.013263920159,0.998496979918,-0.0359476581426,0.998496979918,-0.0359476581426,0.000243114885996,-0.013263920159
2400000000.0,0.000200792457817,-0.0138397161297,0.998429596997,-0.0375097664152,0.998429596997,-0.0375097664152,0.000200792457817,-0.0138397161297
2500000000.0,0.000156653824904,-0.0144153927572,0.998359452142,-0.0390717626984,0.998359452142,-0.0390717626984,0.000156653824903,-0.0144153927572
2600000000.0,0.000110700673454,-0.0149909445641,0.99828654419,-0.0406336416102,0.99828654419,-0.0406336416102,0.000110700673454,-0.0149909445641
2700000000.0,6.29345634062e-05,-0.0155663660587,0.998210872137,-0.0421953977427,0.998210872137,-0.0421953977427,6.29345634062e-05,-0.0155663660587
2800000000.0,1.33569477092e-05,-0.0161416517363,0.998132435117,-0.043757025664,0.998132435117,-0.043757025664,1.33569477094e-05,-0.0161416517363
2900000000.0,-3.80308115132e-05,-0.0167167960793,0.99805123239,-0.0453185199193,0.99805123239,-0.0453185199193,-3.80308115133e-05,-0.0167167960793
3000000000.0,-9.12274293209e-05,-0.0172917935582,0.997967263325,-0.0468798750318,0.997967263325,-0.0468798750318,-9.12274293208e-05,-0.0172917935582
3100000000.0,-0.000146231686368,-0.0178666386317,0.997880527391,-0.0484410855046,0.997880527391,-0.0484410855046,-0.000146231686368,-0.0178666386317
3200000000.0,-0.000203042419001,-0.0184413257473,0.997791024145,-0.0500021458209,0.997791024145,-0.0500021458209,-0.000203042419002,-0.0184413257473
3300000000.0,-0.000261658510764,-0.0190158493419,0.997698753228,-0.0515630504453,0.997698753228,-0.0515630504453,-0.000261658510763,-0.0190158493419
3400000000.0,-0.000322078885047,-0.0195902038423,0.997603714354,-0.0531237938249,0.997603714354,-0.0531237938249,-0.000322078885047,-0.0195902038423
3500000000.0,-0.000384302498748,-0.0201643836654,0.997505907303,-0.0546843703898,0.997505907303,-0.0546843703898,-0.000384302498748,-0.0201643836654
3600000000.0,-0.000448328336713,-0.0207383832188,0.997405331922,-0.0562447745537,0.997405331922,-0.0562447745537,-0.000448328336713,-0.0207383832188
3700000000.0,-0.000514155406902,-0.0213121969009,0.997301988112,-0.0578050007153,0.997301988112,-0.0578050007153,-0.000514155406902,-0.0213121969009
3800000000.0,-0.000581782736135,-0.0218858191017,0.997195875831,-0.0593650432583,0.997195875831,-0.0593650432583,-0.000581782736135,-0.0218858191017
3900000000.0,-0.000651209366348,-0.0224592442029,0.997086995086,-0.0609248965524,0.997086995086,-0.0609248965524,-0.000651209366348,-0.0224592442029
4000000000.0,-0.000722434351274,-0.0230324665783,0.996975345932,-0.0624845549537,0.996975345932,-0.0624845549537,-0.000722434351274,-0.0230324665783
4100000000.0,-0.00079545675351,-0.023605480594,0.996860928469,-0.0640440128056,0.996860928469,-0.0640440128056,-0.000795456753511,-0.023605480594
4200000000.0,-0.000870275641903,-0.024178280609,0.996743742837,-0.0656032644388,0.996743742837,-0.0656032644388,-0.000870275641903,-0.024178280609
4300000000.0,-0.000946890089212,-0.0247508609752,0.99662378922,-0.0671623041725,0.99662378922,-0.0671623041725,-0.000946890089212,-0.0247508609752
4400000000.0,-0.00102529917002,-0.0253232160379,0.996501067836,-0.0687211263142,0.996501067836,-0.0687211263142,-0.00102529917002,-0.0253232160379
4500000000.0,-0.00110550195885,-0.0258953401362,0.996375578943,-0.0702797251607,0.996375578943,-0.0702797251607,-0.00110550195885,-0.0258953401362
4600000000.0,-0.00118749752851,-0.0264672276029,0.996247322831,-0.0718380949983,0.996247322831,-0.0718380949983,-0.00118749752851,-0.0264672276029
4700000000.0,-0.00127128494852,-0.027038872765,0.996116299825,-0.0733962301031,0.996116299825,-0.0733962301031,-0.00127128494852,-0.027038872765
4800000000.0,-0.00135686328378,-0.0276102699442,0.995982510282,-0.0749541247419,0.995982510282,-0.0749541247419,-0.00135686328378,-0.0276102699442
4900000000.0,-0.00144423159331,-0.0281814134566,0.99584595459,-0.0765117731721,0.99584595459,-0.0765117731721,-0.00144423159331,-0.0281814134566
5000000000.0,-0.00153338892911,-0.0287522976136,0.995706633167,-0.0780691696422,0.995706633167,-0.0780691696422,-0.00153338892911,-0.0287522976136
5100000000.0,-0.00162433433511,-0.0293229167215,0.995564546461,-0.0796263083924,0.995564546461,-0.0796263083924,-0.00162433433511,-0.0293229167215
5200000000.0,-0.00171706684629,-0.0298932650822,0.995419694949,-0.0811831836545,0.995419694949,-0.0811831836545,-0.00171706684629,-0.0298932650822
5300000000.0,-0.00181158548775,-0.0304633369933,0.995272079132,-0.0827397896529,0.995272079132,-0.0827397896529,-0.00181158548775,-0.0304633369933
5400000000.0,-0.00190788927397,-0.0310331267483,0.995121699543,-0.0842961206043,0.995121699543,-0.0842961206043,-0.00190788927397,-0.0310331267483
5500000000.0,-0.00200597720809,-0.0316026286368,0.994968556738,-0.0858521707183,0.994968556738,-0.0858521707183,-0.00200597720809,-0.0316026286368
5600000000.0,-0.00210584828122,-0.0321718369449,0.9948126513,-0.0874079341976,0.9948126513,-0.0874079341976,-0.00210584828122,-0.0321718369449
5700000000.0,-0.00220750147183,-0.0327407459551,0.994653983838,-0.0889634052387,0.994653983838,-0.0889634052387,-0.00220750147183,-0.0327407459551
5800000000.0,-0.00231093574524,-0.0333093499467,0.994492554984,-0.0905185780314,0.994492554984,-0.0905185780314,-0.00231093574524,-0.0333093499467
5900000000.0,-0.00241615005305,-0.0338776431961,0.994328365396,-0.09207344676,0.994328365396,-0.09207344676,-0.00241615005305,-0.0338776431961
6000000000.0,-0.00252314333266,-0.0344456199768,0.994161415756,-0.0936280056029,0.994161415756,-0.0936280056029,-0.00252314333266,-0.0344456199768
6100000000.0,-0.00263191450688,-0.0350132745598,0.993991706769,-0.095182248733,0.993991706769,-0.095182248733,-0.00263191450688,-0.0350132745598
6200000000.0,-0.00274246248346,-0.0355806012135,0.993819239164,-0.0967361703184,0.993819239164,-0.0967361703184,-0.00274246248346,-0.0355806012135
6300000000.0,-0.00285478615475,-0.0361475942043,0.993644013694,-0.0982897645219,0.993644013694,-0.0982897645219,-0.00285478615475,-0.0361475942043
6400000000.0,-0.00296888439734,-0.0367142477964,0.993466031132,-0.099843025502,0.993466031132,-0.099843025502,-0.00296888439734,-0.0367142477964
6500000000.0,-0.00308475607171,-0.0372805562523,0.993285292276,-0.101395947413,0.993285292276,-0.101395947413,-0.00308475607171,-0.0372805562523
6600000000.0,-0.00320240002195,-0.0378465138326,0.993101797946,-0.102948524404,0.993101797946,-0.102948524404,-0.00320240002195,-0.0378465138326
6700000000.0,-0.00332181507547,-0.0384121147968,0.992915548983,-0.104500750621,0.992915548983,-0.104500750621,-0.00332181507547,-0.0384121147968
6800000000.0,-0.00344300004273,-0.0389773534028,0.992726546252,-0.106052620207,0.992726546252,-0.106052620207,-0.00344300004273,-0.0389773534028
6900000000.0,-0.00356595371699,-0.0395422239074,0.992534790638,-0.1076041273,0.992534790638,-0.1076041273,-0.00356595371699,-0.0395422239074
7000000000.0,-0.00369067487409,-0.0401067205666,0.992340283047,-0.109155266036,0.992340283047,-0.109155266036,-0.00369067487409,-0.0401067205666
7100000000.0,-0.00381716227223,-0.0406708376356,0.992143024408,-0.110706030547,0.992143024408,-0.110706030547,-0.00381716227223,-0.0406708376356
7200000000.0,-0.00394541465177,-0.0412345693689,0.991943015672,-0.112256414963,0.991943015672,-0.112256414963,-0.00394541465177,-0.0412345693689
7300000000.0,-0.00407543073504,-0.0417979100206,0.991740257809,-0.113806413411,0.991740257809,-0.113806413411,-0.00407543073504,-0.0417979100206
7400000000.0,-0.00420720922616,-0.0423608538445,0.99153475181,-0.115356020015,0.99153475181,-0.115356020015,-0.00420720922616,-0.0423608538445
7500000000.0,-0.00434074881087,-0.0429233950945,0.991326498689,-0.116905228898,0.991326498689,-0.116905228898,-0.00434074881087,-0.0429233950945
7600000000.0,-0.0044760481564,-0.0434855280242,0.991115499479,-0.118454034181,0.991115499479,-0.118454034181,-0.0044760481564,-0.0434855280242
7700000000.0,-0.00461310591129,-0.0440472468878,0.990901755235,-0.120002429981,0.990901755235,-0.120002429981,-0.00461310591129,-0.0440472468878
7800000000.0,-0.0047519207053,-0.0446085459396,0.990685267032,-0.121550410417,0.990685267032,-0.121550410417,-0.0047519207053,-0.0446085459396
7900000000.0,-0.00489249114922,-0.0451694194346,0.990466035964,-0.123097969602,0.990466035964,-0.123097969602,-0.00489249114922,-0.0451694194346
8000000000.0,-0.00503481583481,-0.0457298616284,0.990244063148,-0.124645101652,0.990244063148,-0.124645101652,-0.00503481583481,-0.0457298616284
8100000000.0,-0.00517889333466,-0.0462898667774,0.99001934972,-0.12619180068,0.99001934972,-0.12619180068,-0.00517889333466,-0.0462898667774
8200000000.0,-0.00532472220208,-0.0468494291392,0.989791896836,-0.127738060798,0.989791896836,-0.127738060798,-0.00532472220208,-0.0468494291392
8300000000.0,-0.00547230097102,-0.0474085429724,0.989561705672,-0.129283876117,0.989561705672,-0.129283876117,-0.00547230097102,-0.0474085429724
8400000000.0,-0.00562162815595,-0.0479672025369,0.989328777427,-0.130829240749,0.989328777427,-0.130829240749,-0.00562162815595,-0.0479672025369
8500000000.0,-0.0057727022518,-0.0485254020942,0.989093113316,-0.132374148803,0.989093113316,-0.132374148803,-0.0057727022518,-0.0485254020942
8600000000.0,-0.00592552173388,-0.0490831359071,0.988854714576,-0.133918594392,0.988854714576,-0.133918594392,-0.00592552173388,-0.0490831359071
8700000000.0,-0.00608008505778,-0.0496403982406,0.988613582464,-0.135462571625,0.988613582464,-0.135462571625,-0.00608008505778,-0.0496403982406
8800000000.0,-0.0062363906593,-0.0501971833612,0.988369718257,-0.137006074612,0.988369718257,-0.137006074612,-0.0062363906593,-0.0501971833612
8900000000.0,-0.00639443695443,-0.0507534855376,0.988123123251,-0.138549097464,0.988123123251,-0.138549097464,-0.00639443695443,-0.0507534855376
9000000000.0,-0.00655422233921,-0.0513092990407,0.987873798763,-0.140091634294,0.987873798763,-0.140091634294,-0.00655422233921,-0.0513092990407
9100000000.0,-0.00671574518976,-0.0518646181436,0.987621746128,-0.141633679212,0.987621746128,-0.141633679212,-0.00671574518976,-0.0518646181436
9200000000.0,-0.00687900386213,-0.0524194371222,0.987366966703,-0.143175226332,0.987366966703,-0.143175226332,-0.00687900386213,-0.0524194371222
9300000000.0,-0.00704399669235,-0.0529737502546,0.987109461863,-0.144716269766,0.987109461863,-0.144716269766,-0.00704399669235,-0.0529737502546
9400000000.0,-0.00721072199629,-0.0535275518219,0.986849233003,-0.146256803631,0.986849233003,-0.146256803631,-0.00721072199629,-0.0535275518219
9500000000.0,-0.00737917806969,-0.0540808361079,0.986586281538,-0.147796822042,0.986586281538,-0.147796822042,-0.00737917806969,-0.0540808361079
9600000000.0,-0.00754936318807,-0.0546335973998,0.986320608902,-0.149336319116,0.986320608902,-0.149336319116,-0.00754936318807,-0.0546335973998
9700000000.0,-0.00772127560672,-0.0551858299875,0.986052216548,-0.150875288972,0.986052216548,-0.150875288972,-0.00772127560672,-0.0551858299875
9800000000.0,-0.00789491356066,-0.0557375281645,0.985781105951,-0.152413725732,0.985781105951,-0.152413725732,-0.00789491356066,-0.0557375281645
9900000000.0,-0.0080702752646,-0.0562886862276,0.985507278602,-0.153951623517,0.985507278602,-0.153951623517,-0.0080702752646,-0.0562886862276
10000000000.0,-0.00824735891291,-0.0568392984773,0.985230736014,-0.155488976453,0.985230736014,-0.155488976453,-0.00824735891291,-0.0568392984773
