freq (GHz),S11_real,S11_imag,S21_real,S21_imag,S12_real,S12_imag,S22_real,S22_imag
100000000.0,0.0496269148956,0.00190376578521,0.950371380974,-0.00248216973844,0.950371380974,-0.00248216973844,0.0496269148956,0.00190376578521
200000000.0,0.0499511830769,0.0038046055121,0.950046068201,-0.00496141669187,0.950046068201,-0.00496141669187,0.0499511830769,0.0038046055121
300000000.0,0.0502004877109,0.00570363293239,0.949795378435,-0.00743885687325,0.949795378435,-0.00743885687325,0.0502004877109,0.00570363293239
400000000.0,0.0504161340132,0.00760119654539,0.949578006394,-0.00991484064963,0.949578006394,-0.00991484064963,0.0504161340132,0.00760119654539
500000000.0,0.0506140781861,0.00949746649779,0.949377995819,-0.0123895398385,0.949377995819,-0.0123895398385,0.0506140781861,0.00949746649779
600000000.0,0.0508024807001,0.0113925338322,0.949187186184,-0.0148630470252,0.949187186184,-0.0148630470252,0.0508024807001,0.0113925338322
700000000.0,0.0509861747444,0.0132864461622,0.949000744247,-0.0173354112728,0.949000744247,-0.0173354112728,0.0509861747444,0.0132864461622
800000000.0,0.0511682991513,0.0151792242301,0.948815531119,-0.0198066547013,0.948815531119,-0.0198066547013,0.0511682991513,0.0151792242301
900000000.0,0.0513510263484,0.0170708708057,0.948629374319,-0.0222767813994,0.948629374319,-0.0222767813994,0.0513510263484,0.0170708708057
1000000000.0,0.0515359317835,0.0189613759583,0.948440698342,-0.0247457827066,0.948440698342,-0.0247457827066,0.0515359317835,0.0189613759583
1100000000.0,0.0517241995252,0.0208507204065,0.948248319061,-0.0272136405702,0.948248319061,-0.0272136405702,0.0517241995252,0.0208507204065
1200000000.0,0.0519167449161,0.0227388777641,0.948051321075,-0.0296803297963,0.948051321075,-0.0296803297963,0.0519167449161,0.0227388777641
1300000000.0,0.0521142918295,0.024625816109,0.947848980448,-0.0321458196232,0.947848980448,-0.0321458196232,0.0521142918295,0.024625816109
1400000000.0,0.0523174235069,0.0265114991177,0.947640713877,-0.0346100748592,0.947640713877,-0.0346100748592,0.0523174235069,0.0265114991177
1500000000.0,0.0525266172402,0.0283958869089,0.947426044003,-0.0370730567288,0.947426044003,-0.0370730567288,0.0525266172402,0.0283958869089
1600000000.0,0.0527422687567,0.0302789366858,0.947204575034,-0.0395347235179,0.947204575034,-0.0395347235179,0.0527422687567,0.0302789366858
1700000000.0,0.0529647098129,0.032160603235,0.946975975142,-0.0419950310738,0.946975975142,-0.0419950310738,0.0529647098129,0.032160603235
1800000000.0,0.0531942211711,0.0340408393213,0.946739963494,-0.0444539332026,0.946739963494,-0.0444539332026,0.0531942211711,0.0340408393213
1900000000.0,0.0534310423596,0.0359195960046,0.94649630049,-0.0469113819868,0.94649630049,-0.0469113819868,0.0534310423596,0.0359195960046
2000000000.0,0.0536753791373,0.0377968228978,0.946244780293,-0.0493673280447,0.946244780293,-0.0493673280447,0.0536753791373,0.0377968228978
2100000000.0,0.053927409291,0.0396724683797,0.94598522504,-0.0518217207447,0.94598522504,-0.0518217207447,0.053927409291,0.0396724683797
2200000000.0,0.0541872871973,0.0415464797721,0.945717480274,-0.0542745083829,0.945717480274,-0.0542745083829,0.0541872871973,0.0415464797721
2300000000.0,0.0544551474574,0.043418803489,0.945441411313,-0.0567256383336,0.945441411313,-0.0567256383336,0.0544551474574,0.043418803489
2400000000.0,0.0547311078239,0.0452893851638,0.945156900319,-0.0591750571767,0.945156900319,-0.0591750571767,0.0547311078239,0.0452893851638
2500000000.0,0.0550152715813,0.0471581697573,0.944863843921,-0.061622710807,0.944863843921,-0.061622710807,0.0550152715813,0.0471581697573
2600000000.0,0.0553077295006,0.049025101652,0.94456215126,-0.0640685445287,0.94456215126,-0.0640685445287,0.0553077295006,0.049025101652
2700000000.0,0.0556085614558,0.0508901247331,0.944251742373,-0.0665125031375,0.944251742373,-0.0665125031375,0.0556085614558,0.0508901247331
2800000000.0,0.0559178377728,0.0527531824607,0.943932546839,-0.0689545309925,0.943932546839,-0.0689545309925,0.0559178377728,0.0527531824607
2900000000.0,0.0562356203619,0.0546142179321,0.943604502653,-0.0713945720797,0.943604502653,-0.0713945720797,0.0562356203619,0.0546142179321
3000000000.0,0.0565619636755,0.0564731739379,0.943267555267,-0.0738325700682,0.943267555267,-0.0738325700682,0.0565619636755,0.0564731739379
3100000000.0,0.0568969155221,0.0583299930117,0.942921656773,-0.0762684683603,0.942921656773,-0.0762684683603,0.0568969155221,0.0583299930117
3200000000.0,0.0572405177627,0.0601846174744,0.942566765208,-0.0787022101365,0.942566765208,-0.0787022101365,0.0572405177627,0.0601846174744
3300000000.0,0.0575928069103,0.0620369894748,0.942202843957,-0.081133738396,0.942202843957,-0.081133738396,0.0575928069103,0.0620369894748
3400000000.0,0.0579538146469,0.0638870510255,0.941829861231,-0.083562995993,0.941829861231,-0.083562995993,0.0579538146469,0.0638870510255
3500000000.0,0.0583235682728,0.065734744036,0.941447789622,-0.0859899256705,0.941447789622,-0.0859899256705,0.0583235682728,0.065734744036
3600000000.0,0.0587020910991,0.0675800103429,0.941056605711,-0.0884144700902,0.941056605711,-0.0884144700902,0.0587020910991,0.0675800103429
3700000000.0,0.0590894027902,0.0694227917372,0.94065628972,-0.0908365718608,0.94065628972,-0.0908365718608,0.0590894027902,0.0694227917372
3800000000.0,0.0594855196658,0.0712630299903,0.940246825217,-0.0932561735631,0.940246825217,-0.0932561735631,0.0594855196658,0.0712630299903
3900000000.0,0.0598904549672,0.0731006668765,0.939828198844,-0.0956732177742,0.939828198844,-0.0956732177742,0.0598904549672,0.0731006668765
4000000000.0,0.0603042190928,0.0749356441954,0.939400400085,-0.0980876470888,0.939400400085,-0.0980876470888,0.0603042190928,0.0749356441954
4100000000.0,0.0607268198082,0.076767903792,0.938963421054,-0.10049940414,0.938963421054,-0.10049940414,0.0607268198082,0.076767903792
4200000000.0,0.0611582624326,0.0785973875749,0.93851725631,-0.102908431619,0.93851725631,-0.102908431619,0.0611582624326,0.0785973875749
4300000000.0,0.0615985500061,0.0804240375347,0.93806190269,-0.105314672289,0.93806190269,-0.105314672289,0.0615985500061,0.0804240375347
4400000000.0,0.0620476834396,0.0822477957596,0.937597359155,-0.10771806901,0.937597359155,-0.10771806901,0.0620476834396,0.0822477957596
4500000000.0,0.0625056616497,0.0840686044515,0.937123626663,-0.110118564744,0.937123626663,-0.110118564744,0.0625056616497,0.0840686044515
4600000000.0,0.0629724816805,0.0858864059405,0.936640708037,-0.112516102578,0.936640708037,-0.112516102578,0.0629724816805,0.0858864059405
4700000000.0,0.0634481388135,0.0877011426982,0.936148607865,-0.114910625733,0.936148607865,-0.114910625733,0.0634481388135,0.0877011426982
4800000000.0,0.0639326266679,0.0895127573512,0.935647332394,-0.117302077582,0.935647332394,-0.117302077582,0.0639326266679,0.0895127573512
4900000000.0,0.0644259372909,0.0913211926933,0.935136889441,-0.119690401657,0.935136889441,-0.119690401657,0.0644259372909,0.0913211926933
5000000000.0,0.0649280612409,0.0931263916973,0.934617288309,-0.122075541663,0.934617288309,-0.122075541663,0.0649280612409,0.0931263916973
5100000000.0,0.0654389876631,0.0949282975259,0.934088539712,-0.124457441492,0.934088539712,-0.124457441492,0.0654389876631,0.0949282975259
5200000000.0,0.0659587043587,0.0967268535426,0.93355065571,-0.12683604523,0.93355065571,-0.12683604523,0.0659587043587,0.0967268535426
5300000000.0,0.0664871978487,0.098522003322,0.933003649635,-0.129211297168,0.933003649635,-0.129211297168,0.0664871978487,0.098522003322
5400000000.0,0.0670244534324,0.100313690659,0.932447536044,-0.131583141815,0.932447536044,-0.131583141815,0.0670244534324,0.100313690659
5500000000.0,0.0675704552414,0.102101859579,0.931882330657,-0.133951523902,0.931882330657,-0.133951523902,0.0675704552414,0.102101859579
5600000000.0,0.0681251862897,0.103886454347,0.931308050311,-0.136316388397,0.931308050311,-0.136316388397,0.0681251862897,0.103886454347
5700000000.0,0.0686886285195,0.105667419472,0.930724712911,-0.138677680509,0.930724712911,-0.138677680509,0.0686886285195,0.105667419472
5800000000.0,0.0692607628448,0.107444699724,0.930132337392,-0.141035345698,0.930132337392,-0.141035345698,0.0692607628448,0.107444699724
5900000000.0,0.0698415691907,0.109218240133,0.929530943672,-0.143389329685,0.929530943672,-0.143389329685,0.0698415691907,0.109218240133
6000000000.0,0.0704310265308,0.110987986002,0.928920552621,-0.145739578455,0.928920552621,-0.145739578455,0.0704310265308,0.110987986002
6100000000.0,0.0710291129223,0.112753882912,0.928301186023,-0.14808603827,0.928301186023,-0.14808603827,0.0710291129223,0.112753882912
6200000000.0,0.0716358055378,0.11451587673,0.927672866543,-0.150428655673,0.927672866543,-0.150428655673,0.0716358055378,0.11451587673
6300000000.0,0.0722510806965,0.116273913616,0.927035617702,-0.152767377493,0.927035617702,-0.152767377493,0.0722510806965,0.116273913616
6400000000.0,0.0728749138922,0.11802794003,0.926389463839,-0.155102150859,0.926389463839,-0.155102150859,0.0728749138922,0.11802794003
6500000000.0,0.0735072798209,0.119777902737,0.925734430093,-0.157432923197,0.925734430093,-0.157432923197,0.0735072798209,0.119777902737
6600000000.0,0.0741481524055,0.121523748815,0.925070542373,-0.159759642244,0.925070542373,-0.159759642244,0.0741481524055,0.121523748815
6700000000.0,0.0747975048203,0.123265425659,0.924397827334,-0.162082256051,0.924397827334,-0.162082256051,0.0747975048203,0.123265425659
6800000000.0,0.0754553095133,0.125002880989,0.923716312356,-0.164400712987,0.923716312356,-0.164400712987,0.0754553095133,0.125002880989
6900000000.0,0.0761215382283,0.126736062854,0.923026025523,-0.16671496175,0.923026025523,-0.16671496175,0.0761215382283,0.126736062854
7000000000.0,0.0767961620246,0.128464919638,0.922326995598,-0.169024951365,0.922326995598,-0.169024951365,0.0767961620246,0.128464919638
7100000000.0,0.077479151297,0.130189400066,0.921619252011,-0.171330631199,0.921619252011,-0.171330631199,0.077479151297,0.130189400066
7200000000.0,0.078170475794,0.131909453209,0.920902824834,-0.173631950955,0.920902824834,-0.173631950955,0.078170475794,0.131909453209
7300000000.0,0.0788701046357,0.133625028486,0.920177744765,-0.175928860689,0.920177744765,-0.175928860689,0.0788701046357,0.133625028486
7400000000.0,0.0795780063303,0.135336075675,0.919444043114,-0.178221310804,0.919444043114,-0.178221310804,0.0795780063303,0.135336075675
7500000000.0,0.0802941487908,0.137042544912,0.918701751784,-0.180509252062,0.918701751784,-0.180509252062,0.0802941487908,0.137042544912
7600000000.0,0.0810184993501,0.138744386698,0.917950903254,-0.182792635586,0.917950903254,-0.182792635586,0.0810184993501,0.138744386698
7700000000.0,0.0817510247762,0.140441551903,0.917191530571,-0.185071412863,0.917191530571,-0.185071412863,0.0817510247762,0.140441551903
7800000000.0,0.0824916912862,0.14213399177,0.916423667325,-0.187345535753,0.916423667325,-0.187345535753,0.0824916912862,0.14213399177
7900000000.0,0.0832404645603,0.143821657921,0.915647347647,-0.189614956489,0.915647347647,-0.189614956489,0.0832404645603,0.143821657921
8000000000.0,0.0839973097549,0.145504502357,0.914862606186,-0.19187962768,0.914862606186,-0.19187962768,0.0839973097549,0.145504502357
8100000000.0,0.084762191516,0.147182477468,0.914069478102,-0.19413950232,0.914069478102,-0.19413950232,0.084762191516,0.147182477468
8200000000.0,0.0855350739908,0.14885553603,0.91326799905,-0.196394533789,0.91326799905,-0.196394533789,0.0855350739908,0.14885553603
8300000000.0,0.0863159208405,0.150523631214,0.912458205171,-0.198644675855,0.912458205171,-0.198644675855,0.0863159208405,0.150523631214
8400000000.0,0.0871046952513,0.152186716587,0.911640133079,-0.200889882682,0.911640133079,-0.200889882682,0.0871046952513,0.152186716587
8500000000.0,0.0879013599464,0.153844746115,0.910813819848,-0.203130108828,0.910813819848,-0.203130108828,0.0879013599464,0.153844746115
8600000000.0,0.0887058771965,0.155497674168,0.909979303005,-0.205365309253,0.909979303005,-0.205365309253,0.0887058771965,0.155497674168
8700000000.0,0.0895182088307,0.157145455523,0.909136620514,-0.207595439321,0.909136620514,-0.207595439321,0.0895182088307,0.157145455523
8800000000.0,0.0903383162468,0.158788045367,0.908285810772,-0.209820454802,0.908285810772,-0.209820454802,0.0903383162468,0.158788045367
8900000000.0,0.0911661604218,0.160425399298,0.907426912592,-0.212040311875,0.907426912592,-0.212040311875,0.0911661604218,0.160425399298
9000000000.0,0.0920017019213,0.16205747333,0.906559965199,-0.214254967133,0.906559965199,-0.214254967133,0.0920017019213,0.16205747333
9100000000.0,0.0928449009096,0.163684223897,0.905685008216,-0.216464377584,0.905685008216,-0.216464377584,0.0928449009096,0.163684223897
9200000000.0,0.0936957171592,0.165305607853,0.904802081657,-0.218668500656,0.904802081657,-0.218668500656,0.0936957171592,0.165305607853
9300000000.0,0.0945541100598,0.166921582476,0.903911225917,-0.220867294194,0.903911225917,-0.220867294194,0.0945541100598,0.166921582476
9400000000.0,0.0954200386274,0.168532105469,0.903012481762,-0.223060716472,0.903012481762,-0.223060716472,0.0954200386274,0.168532105469
9500000000.0,0.0962934615136,0.170137134966,0.902105890323,-0.225248726184,0.902105890323,-0.225248726184,0.0962934615136,0.170137134966
9600000000.0,0.0971743370137,0.17173662953,0.901191493084,-0.227431282458,0.901191493084,-0.227431282458,0.0971743370137,0.17173662953
9700000000.0,0.0980626230759,0.173330548159,0.900269331874,-0.22960834485,0.900269331874,-0.22960834485,0.0980626230759,0.173330548159
9800000000.0,0.0989582773092,0.174918850286,0.899339448861,-0.231779873348,0.899339448861,-0.231779873348,0.0989582773092,0.174918850286
9900000000.0,0.0998612569921,0.17650149578,0.89840188654,-0.233945828377,0.89840188654,-0.233945828377,0.0998612569921,0.17650149578
10000000000.0,0.10077151908,0.178078444951,0.89745668773,-0.236106170798,0.89745668773,-0.236106170798,0.10077151908,0.178078444951
