freq (GHz),S11_real,S11_imag,S21_real,S21_imag,S12_real,S12_imag,S22_real,S22_imag
100000000.0,0.00282586757525,0.00103714338985,0.997169716556,-0.00288000779368,0.997169716556,-0.00288000779368,0.00282586757525,0.00103714338985
200000000.0,0.00285281737814,0.00207410523818,0.99713595138,-0.00575984498877,0.99713595138,-0.00575984498877,0.00285281737814,0.00207410523818
300000000.0,0.00288079335617,0.00311090735621,0.9970977603,-0.00863954091868,0.9970977603,-0.00863954091868,0.00288079335617,0.00311090735621
400000000.0,0.00291224010026,0.00414753316339,0.997052698439,-0.0115190841595,0.997052698439,-0.0115190841595,0.00291224010026,0.00414753316339
500000000.0,0.00294809812219,0.00518395723628,0.996999824947,-0.0143984532485,0.996999824947,-0.0143984532485,0.00294809812219,0.00518395723628
600000000.0,0.00298884624446,0.00622015027836,0.996938660608,-0.0172776220654,0.996938660608,-0.0172776220654,0.00298884624446,0.00622015027836
700000000.0,0.00303476652868,0.00725608089875,0.996868922923,-0.0201565618206,0.996868922923,-0.0201565618206,0.00303476652868,0.00725608089875
800000000.0,0.00308604094405,0.00829171643456,0.996790429438,-0.0230352420041,0.996790429438,-0.0230352420041,0.00308604094405,0.00829171643456
900000000.0,0.00314279439901,0.00932702339116,0.996703054716,-0.0259136309083,0.996703054716,-0.0259136309083,0.00314279439901,0.00932702339116
1000000000.0,0.00320511654763,0.0103619677021,0.996606708535,-0.0287916959464,0.996606708535,-0.0287916959464,0.00320511654763,0.0103619677021
1100000000.0,0.00327307390844,0.011396514894,0.996501323769,-0.0316694038607,0.996501323769,-0.0316694038607,0.00327307390844,0.011396514894
1200000000.0,0.00334671708385,0.0124306301965,0.996386849169,-0.0345467208654,0.996386849169,-0.0345467208654,0.00334671708385,0.0124306301965
1300000000.0,0.00342608530088,0.0134642786194,0.996263244824,-0.0374236127499,0.996263244824,-0.0374236127499,0.00342608530088,0.0134642786194
1400000000.0,0.00351120939511,0.0144974250079,0.996130479183,-0.0403000449549,0.996130479183,-0.0403000449549,0.00351120939511,0.0144974250079
1500000000.0,0.00360211384336,0.0155300340844,0.995988527014,-0.0431759826313,0.995988527014,-0.0431759826313,0.00360211384336,0.0155300340844
1600000000.0,0.00369881819096,0.0165620704799,0.995837367989,-0.046051390686,0.995837367989,-0.046051390686,0.00369881819096,0.0165620704799
1700000000.0,0.00380133808005,0.0175934987582,0.995676985645,-0.0489262338186,0.995676985645,-0.0489262338186,0.00380133808005,0.0175934987582
1800000000.0,0.00390968600704,0.0186242834364,0.995507366639,-0.0518004765518,0.995507366639,-0.0518004765518,0.00390968600704,0.0186242834364
1900000000.0,0.00402387189151,0.0196543889999,0.99532850017,-0.0546740832557,0.99532850017,-0.0546740832557,0.00402387189151,0.0196543889999
2000000000.0,0.00414390351079,0.020683779916,0.995140377551,-0.057547018169,0.995140377551,-0.057547018169,0.00414390351079,0.020683779916
2100000000.0,0.00426978683699,0.0217124206443,0.99494299187,-0.0604192454168,0.99494299187,-0.0604192454168,0.00426978683699,0.0217124206443
2200000000.0,0.00440152630194,0.0227402756464,0.994736337729,-0.063290729026,0.994736337729,-0.063290729026,0.00440152630194,0.0227402756464
2300000000.0,0.00453912500799,0.0237673093936,0.994520411029,-0.0661614329384,0.994520411029,-0.0661614329384,0.00453912500799,0.0237673093936
2400000000.0,0.00468258489762,0.0247934863737,0.994295208805,-0.0690313210226,0.994295208805,-0.0690313210226,0.00468258489762,0.0247934863737
2500000000.0,0.00483190689119,0.0258187710969,0.994060729088,-0.0719003570844,0.994060729088,-0.0719003570844,0.00483190689119,0.0258187710969
2600000000.0,0.00498709099999,0.0268431281013,0.993816970789,-0.0747685048761,0.993816970789,-0.0747685048761,0.00498709099999,0.0268431281013
2700000000.0,0.00514813641966,0.0278665219575,0.993563933613,-0.077635728105,0.993563933613,-0.077635728105,0.00514813641966,0.0278665219575
2800000000.0,0.00531504160805,0.028888917273,0.993301617973,-0.0805019904407,0.993301617973,-0.0805019904407,0.00531504160805,0.028888917273
2900000000.0,0.00548780435059,0.0299102786958,0.993030024935,-0.0833672555222,0.993030024935,-0.0833672555222,0.00548780435059,0.0299102786958
3000000000.0,0.00566642181558,0.0309305709186,0.992749156152,-0.0862314869644,0.992749156152,-0.0862314869644,0.00566642181558,0.0309305709186
3100000000.0,0.00585089060107,0.0319497586811,0.992459013828,-0.0890946483639,0.992459013828,-0.0890946483639,0.00585089060107,0.0319497586811
3200000000.0,0.00604120677514,0.0329678067742,0.992159600671,-0.0919567033043,0.992159600671,-0.0919567033043,0.00604120677514,0.0329678067742
3300000000.0,0.0062373659104,0.0339846800417,0.991850919863,-0.0948176153614,0.991850919863,-0.0948176153614,0.0062373659104,0.0339846800417
3400000000.0,0.00643936311389,0.035000343384,0.991532975027,-0.0976773481083,0.991532975027,-0.0976773481083,0.00643936311389,0.035000343384
3500000000.0,0.00664719305306,0.03601476176,0.991205770205,-0.100535865119,0.991205770205,-0.100535865119,0.00664719305306,0.03601476176
3600000000.0,0.00686084997844,0.0370279001898,0.990869309833,-0.103393129974,0.990869309833,-0.103393129974,0.00686084997844,0.0370279001898
3700000000.0,0.00708032774353,0.038039723757,0.990523598722,-0.106249106262,0.990523598722,-0.106249106262,0.00708032774353,0.038039723757
3800000000.0,0.00730561982232,0.0390501976108,0.990168642041,-0.109103757587,0.990168642041,-0.109103757587,0.00730561982232,0.0390501976108
3900000000.0,0.00753671932479,0.040059286968,0.989804445304,-0.111957047568,0.989804445304,-0.111957047568,0.00753671932479,0.040059286968
4000000000.0,0.00777361901071,0.0410669571154,0.989431014353,-0.114808939848,0.989431014353,-0.114808939848,0.00777361901071,0.0410669571154
4100000000.0,0.00801631130186,0.0420731734117,0.989048355346,-0.11765939809,0.989048355346,-0.11765939809,0.00801631130186,0.0420731734117
4200000000.0,0.00826478829309,0.0430779012892,0.988656474751,-0.120508385985,0.988656474751,-0.120508385985,0.00826478829309,0.0430779012892
4300000000.0,0.00851904176215,0.0440811062557,0.988255379331,-0.123355867257,0.988255379331,-0.123355867257,0.00851904176215,0.0440811062557
4400000000.0,0.00877906317861,0.0450827538967,0.987845076139,-0.126201805659,0.987845076139,-0.126201805659,0.00877906317861,0.0450827538967
4500000000.0,0.00904484371193,0.0460828098768,0.987425572506,-0.129046164982,0.987425572506,-0.129046164982,0.00904484371193,0.0460828098768
4600000000.0,0.00931637423879,0.0470812399415,0.986996876039,-0.131888909056,0.986996876039,-0.131888909056,0.00931637423879,0.0470812399415
4700000000.0,0.00959364534975,0.0480780099191,0.986558994613,-0.134730001751,0.986558994613,-0.134730001751,0.00959364534975,0.0480780099191
4800000000.0,0.00987664735535,0.0490730857222,0.986111936361,-0.137569406983,0.986111936361,-0.137569406983,0.00987664735535,0.0490730857222
4900000000.0,0.0101653702917,0.0500664333494,0.985655709676,-0.140407088711,0.985655709676,-0.140407088711,0.0101653702917,0.0500664333494
5000000000.0,0.0104598039258,0.0510580188868,0.985190323199,-0.143243010947,0.985190323199,-0.143243010947,0.0104598039258,0.0510580188868
5100000000.0,0.0107599377599,0.0520478085101,0.984715785819,-0.14607713775,0.984715785819,-0.14607713775,0.0107599377599,0.0520478085101
5200000000.0,0.0110657610363,0.0530357684853,0.984232106666,-0.148909433237,0.984232106666,-0.148909433237,0.0110657610363,0.0530357684853
5300000000.0,0.0113772627415,0.0540218651712,0.98373929511,-0.151739861577,0.98373929511,-0.151739861577,0.0113772627415,0.0540218651712
5400000000.0,0.0116944316096,0.0550060650202,0.983237360755,-0.154568386999,0.983237360755,-0.154568386999,0.0116944316096,0.0550060650202
5500000000.0,0.0120172561262,0.0559883345801,0.982726313435,-0.157394973793,0.982726313435,-0.157394973793,0.0120172561262,0.0559883345801
5600000000.0,0.0123457245318,0.0569686404959,0.982206163216,-0.16021958631,0.982206163216,-0.16021958631,0.0123457245318,0.0569686404959
5700000000.0,0.0126798248247,0.0579469495105,0.981676920384,-0.163042188965,0.981676920384,-0.163042188965,0.0126798248247,0.0579469495105
5800000000.0,0.0130195447642,0.058923228467,0.981138595451,-0.165862746242,0.981138595451,-0.165862746242,0.0130195447642,0.058923228467
5900000000.0,0.0133648718734,0.0598974443096,0.980591199149,-0.168681222691,0.980591199149,-0.168681222691,0.0133648718734,0.0598974443096
6000000000.0,0.0137157934418,0.0608695640852,0.980034742424,-0.171497582933,0.980034742424,-0.171497582933,0.0137157934418,0.0608695640852
6100000000.0,0.0140722965278,0.0618395549448,0.97946923644,-0.174311791663,0.97946923644,-0.174311791663,0.0140722965278,0.0618395549448
6200000000.0,0.0144343679615,0.0628073841452,0.978894692572,-0.177123813649,0.978894692572,-0.177123813649,0.0144343679615,0.0628073841452
6300000000.0,0.0148019943464,0.0637730190496,0.978311122407,-0.179933613735,0.978311122407,-0.179933613735,0.0148019943464,0.0637730190496
6400000000.0,0.0151751620623,0.06473642713,0.977718537737,-0.182741156843,0.977718537737,-0.182741156843,0.0151751620623,0.06473642713
6500000000.0,0.0155538572671,0.0656975759677,0.977116950564,-0.185546407976,0.977116950564,-0.185546407976,0.0155538572671,0.0656975759677
6600000000.0,0.0159380658987,0.0666564332551,0.976506373091,-0.188349332218,0.976506373091,-0.188349332218,0.0159380658987,0.0666564332551
6700000000.0,0.0163277736776,0.0676129667971,0.975886817727,-0.191149894735,0.975886817727,-0.191149894735,0.0163277736776,0.0676129667971
6800000000.0,0.0167229661082,0.0685671445119,0.975258297079,-0.193948060779,0.975258297079,-0.193948060779,0.0167229661082,0.0685671445119
6900000000.0,0.017123628481,0.0695189344331,0.974620823953,-0.196743795691,0.974620823953,-0.196743795691,0.017123628481,0.0695189344331
7000000000.0,0.0175297458745,0.0704683047102,0.973974411354,-0.199537064897,0.973974411354,-0.199537064897,0.0175297458745,0.0704683047102
7100000000.0,0.0179413031569,0.0714152236106,0.97331907248,-0.202327833914,0.97331907248,-0.202327833914,0.0179413031569,0.0714152236106
7200000000.0,0.0183582849877,0.0723596595203,0.972654820727,-0.205116068352,0.972654820727,-0.205116068352,0.0183582849877,0.0723596595203
7300000000.0,0.0187806758197,0.0733015809455,0.971981669678,-0.207901733913,0.971981669678,-0.207901733913,0.0187806758197,0.0733015809455
7400000000.0,0.0192084599003,0.0742409565138,0.971299633111,-0.210684796394,0.971299633111,-0.210684796394,0.0192084599003,0.0742409565138
7500000000.0,0.0196416212736,0.0751777549754,0.970608724991,-0.213465221689,0.970608724991,-0.213465221689,0.0196416212736,0.0751777549754
7600000000.0,0.0200801437815,0.0761119452045,0.969908959473,-0.216242975789,0.969908959473,-0.216242975789,0.0200801437815,0.0761119452045
7700000000.0,0.0205240110658,0.0770434962001,0.969200350895,-0.219018024786,0.969200350895,-0.219018024786,0.0205240110658,0.0770434962001
7800000000.0,0.0209732065693,0.0779723770877,0.968482913783,-0.22179033487,0.968482913783,-0.22179033487,0.0209732065693,0.0779723770877
7900000000.0,0.0214277135378,0.0788985571202,0.967756662843,-0.224559872338,0.967756662843,-0.224559872338,0.0214277135378,0.0788985571202
8000000000.0,0.0218875150211,0.0798220056793,0.967021612968,-0.227326603585,0.967021612968,-0.227326603585,0.0218875150211,0.0798220056793
8100000000.0,0.022352593875,0.0807426922765,0.966277779226,-0.230090495117,0.966277779226,-0.230090495117,0.022352593875,0.0807426922765
8200000000.0,0.0228229327624,0.0816605865543,0.965525176868,-0.232851513543,0.965525176868,-0.232851513543,0.0228229327624,0.0816605865543
8300000000.0,0.0232985141551,0.0825756582875,0.964763821322,-0.23560962558,0.964763821322,-0.23560962558,0.0232985141551,0.0825756582875
8400000000.0,0.023779320335,0.083487877384,0.96399372819,-0.238364798058,0.96399372819,-0.238364798058,0.023779320335,0.083487877384
8500000000.0,0.0242653333958,0.0843972138865,0.963214913253,-0.241116997913,0.963214913253,-0.241116997913,0.0242653333958,0.0843972138865
8600000000.0,0.024756535244,0.0853036379731,0.962427392463,-0.243866192196,0.962427392463,-0.243866192196,0.024756535244,0.0853036379731
8700000000.0,0.025252907601,0.0862071199587,0.961631181944,-0.246612348071,0.961631181944,-0.246612348071,0.025252907601,0.0862071199587
8800000000.0,0.0257544320041,0.087107630296,0.960826297994,-0.249355432816,0.960826297994,-0.249355432816,0.0257544320041,0.087107630296
8900000000.0,0.0262610898077,0.0880051395766,0.960012757078,-0.252095413827,0.960012757078,-0.252095413827,0.0262610898077,0.0880051395766
9000000000.0,0.0267728621853,0.0888996185321,0.95919057583,-0.254832258614,0.95919057583,-0.254832258614,0.0267728621853,0.0888996185321
9100000000.0,0.0272897301306,0.0897910380352,0.958359771051,-0.257565934808,0.958359771051,-0.257565934808,0.0272897301306,0.0897910380352
9200000000.0,0.0278116744586,0.0906793691006,0.957520359708,-0.26029641016,0.957520359708,-0.26029641016,0.0278116744586,0.0906793691006
9300000000.0,0.0283386758076,0.0915645828863,0.956672358933,-0.263023652539,0.956672358933,-0.263023652539,0.0283386758076,0.0915645828863
9400000000.0,0.0288707146403,0.0924466506945,0.95581578602,-0.265747629939,0.95581578602,-0.265747629939,0.0288707146403,0.0924466506945
9500000000.0,0.0294077712449,0.0933255439725,0.954950658424,-0.268468310477,0.954950658424,-0.268468310477,0.0294077712449,0.0933255439725
9600000000.0,0.0299498257372,0.0942012343141,0.954076993764,-0.271185662392,0.954076993764,-0.271185662392,0.0299498257372,0.0942012343141
9700000000.0,0.0304968580611,0.09507369346,0.953194809813,-0.273899654053,0.953194809813,-0.273899654053,0.0304968580611,0.09507369346
9800000000.0,0.0310488479908,0.0959428932995,0.952304124507,-0.276610253951,0.952304124507,-0.276610253951,0.0310488479908,0.0959428932995
9900000000.0,0.0316057751318,0.0968088058708,0.951404955934,-0.279317430709,0.951404955934,-0.279317430709,0.0316057751318,0.0968088058708
10000000000.0,0.0321676189221,0.0976714033625,0.95049732234,-0.282021153075,0.95049732234,-0.282021153075,0.0321676189221,0.0976714033625
