freq (GHz),S11_real,S11_imag,S21_real,S21_imag,S12_real,S12_imag,S22_real,S22_imag
100000000.0,0.000134073799084,-0.000423404054759,0.999862447724,-0.00104243568055,0.999862447724,-0.00104243568055,0.000134073799084,-0.000423404054759
200000000.0,0.000132962261145,-0.000846828403049,0.999858931761,-0.00208490359541,0.999858931761,-0.00208490359541,0.000132962261145,-0.000846828403049
300000000.0,0.000130730591216,-0.00127028231607,0.999854386494,-0.00312742119854,0.999854386494,-0.00312742119854,0.000130730591216,-0.00127028231607
400000000.0,0.000127495886998,-0.00169377249352,0.999848694292,-0.00417000114839,0.999848694292,-0.00417000114839,0.000127495886998,-0.00169377249352
500000000.0,0.000123302950744,-0.00211730422153,0.999841809729,-0.00521265374255,0.999841809729,-0.00521265374255,0.000123302950744,-0.00211730422153
600000000.0,0.000118174405551,-0.00254088182331,0.999833709473,-0.00625538773374,0.999833709473,-0.00625538773374,0.000118174405551,-0.00254088182331
700000000.0,0.000112123424486,-0.00296450889965,0.999824379576,-0.00729821074464,0.999824379576,-0.00729821074464,0.000112123424486,-0.00296450889965
800000000.0,0.000105158373284,-0.00338818847377,0.999813810835,-0.00834112951304,0.999813810835,-0.00834112951304,0.000105158373284,-0.00338818847377
900000000.0,9.72848769167e-05,-0.00381192309082,0.999801996734,-0.00938415005572,0.999801996734,-0.00938415005572,9.7284876917e-05,-0.00381192309082
1000000000.0,8.85068670371e-05,-0.00423571488767,0.999788932401,-0.0104272777826,0.999788932401,-0.0104272777826,8.85068670369e-05,-0.00423571488767
1100000000.0,7.88271644616e-05,-0.00465956564551,0.999774614035,-0.0114705175814,0.999774614035,-0.0114705175814,7.88271644614e-05,-0.00465956564551
1200000000.0,6.82478265757e-05,-0.00508347683094,0.999759038555,-0.012513873883,0.999759038555,-0.012513873883,6.82478265757e-05,-0.00508347683094
1300000000.0,5.67703661871e-05,-0.0055074496286,0.999742203394,-0.0135573507128,0.999742203394,-0.0135573507128,5.67703661871e-05,-0.0055074496286
1400000000.0,4.43958956833e-05,-0.00593148496756,0.999724106352,-0.0146009517324,0.999724106352,-0.0146009517324,4.43958956835e-05,-0.00593148496756
1500000000.0,3.11252255185e-05,-0.00635558354396,0.999704745502,-0.0156446802738,0.999704745502,-0.0156446802738,3.11252255185e-05,-0.00635558354396
1600000000.0,1.69589336421e-05,-0.00677974583937,0.999684119126,-0.0166885393685,0.999684119126,-0.0166885393685,1.69589336421e-05,-0.00677974583937
1700000000.0,1.89741574053e-06,-0.00720397213709,0.999662225664,-0.0177325317714,0.999662225664,-0.0177325317714,1.89741574053e-06,-0.00720397213709
1800000000.0,-1.40590775418e-05,-0.00762826253617,0.999639063684,-0.0187766599828,0.999639063684,-0.0187766599828,-1.40590775418e-05,-0.00762826253617
1900000000.0,-3.09104124759e-05,-0.00805261696354,0.99961463185,-0.0198209262661,0.99961463185,-0.0198209262661,-3.09104124758e-05,-0.00805261696354
2000000000.0,-4.86565505813e-05,-0.00847703518487,0.999588928907,-0.020865332664,0.999588928907,-0.020865332664,-4.86565505812e-05,-0.00847703518487
2100000000.0,-6.72975316994e-05,-0.00890151681428,0.999561953665,-0.0219098810129,0.999561953665,-0.0219098810129,-6.72975316993e-05,-0.00890151681428
2200000000.0,-8.68334605433e-05,-0.00932606132295,0.999533704986,-0.0229545729555,0.999533704986,-0.0229545729555,-8.68334605434e-05,-0.00932606132295
2300000000.0,-0.000107264495879,-0.00975066804701,0.999504181777,-0.0239994099526,0.999504181777,-0.0239994099526,-0.000107264495879,-0.00975066804701
2400000000.0,-0.000128590841728,-0.0101753361946,0.999473382982,-0.0250443932928,0.999473382982,-0.0250443932928,-0.000128590841728,-0.0101753361946
2500000000.0,-0.000150812740112,-0.0106000648525,0.999441307577,-0.0260895241023,0.999441307577,-0.0260895241023,-0.000150812740112,-0.0106000648525
2600000000.0,-0.000173930465028,-0.011024852992,0.999407954562,-0.0271348033531,0.999407954562,-0.0271348033531,-0.000173930465028,-0.011024852992
2700000000.0,-0.00019794431738,-0.0114496994743,0.999373322964,-0.0281802318713,0.999373322964,-0.0281802318713,-0.00019794431738,-0.0114496994743
2800000000.0,-0.000222854620696,-0.0118746030558,0.999337411827,-0.0292258103439,0.999337411827,-0.0292258103439,-0.000222854620695,-0.0118746030558
2900000000.0,-0.000248661717455,-0.0122995623927,0.999300220214,-0.0302715393254,0.999300220214,-0.0302715393254,-0.000248661717456,-0.0122995623927
3000000000.0,-0.000275365965944,-0.0127245760455,0.999261747204,-0.0313174192442,0.999261747204,-0.0313174192442,-0.000275365965944,-0.0127245760455
3100000000.0,-0.000302967737509,-0.0131496424829,0.99922199189,-0.0323634504082,0.99922199189,-0.0323634504082,-0.000302967737509,-0.0131496424829
3200000000.0,-0.00033146741418,-0.013574760086,0.999180953377,-0.03340963301,0.999180953377,-0.03340963301,-0.00033146741418,-0.013574760086
3300000000.0,-0.00036086538657,-0.0139999271515,0.999138630783,-0.0344559671321,0.999138630783,-0.0344559671321,-0.00036086538657,-0.0139999271515
3400000000.0,-0.000391162052023,-0.0144251418952,0.999095023238,-0.0355024527513,0.999095023238,-0.0355024527513,-0.000391162052023,-0.0144251418952
3500000000.0,-0.000422357812968,-0.0148504024556,0.99905012988,-0.0365490897434,0.99905012988,-0.0365490897434,-0.000422357812968,-0.0148504024556
3600000000.0,-0.000454453075451,-0.0152757068963,0.999003949858,-0.0375958778867,0.999003949858,-0.0375958778867,-0.00045445307545,-0.0152757068963
3700000000.0,-0.000487448247814,-0.0157010532094,0.99895648233,-0.0386428168666,0.99895648233,-0.0386428168666,-0.000487448247814,-0.0157010532094
3800000000.0,-0.000521343739514,-0.0161264393177,0.998907726464,-0.0396899062789,0.998907726464,-0.0396899062789,-0.000521343739514,-0.0161264393177
3900000000.0,-0.000556139960037,-0.0165518630778,0.998857681435,-0.0407371456329,0.998857681435,-0.0407371456329,-0.000556139960037,-0.0165518630778
4000000000.0,-0.00059183731793,-0.0169773222822,0.998806346428,-0.0417845343555,0.998806346428,-0.0417845343555,-0.00059183731793,-0.0169773222822
4100000000.0,-0.0006284362199,-0.0174028146617,0.998753720634,-0.0428320717935,0.998753720634,-0.0428320717935,-0.0006284362199,-0.0174028146617
4200000000.0,-0.000665937070011,-0.0178283378877,0.998699803257,-0.0438797572169,0.998699803257,-0.0438797572169,-0.000665937070011,-0.0178283378877
4300000000.0,-0.000704340268922,-0.0182538895742,0.998644593503,-0.0449275898219,0.998644593503,-0.0449275898219,-0.000704340268922,-0.0182538895742
4400000000.0,-0.000743646213206,-0.0186794672799,0.99858809059,-0.0459755687331,0.99858809059,-0.0459755687331,-0.000743646213206,-0.0186794672799
4500000000.0,-0.00078385529471,-0.0191050685103,0.998530293744,-0.0470236930065,0.998530293744,-0.0470236930065,-0.000783855294709,-0.0191050685103
4600000000.0,-0.00082496789996,-0.019530690719,0.998471202197,-0.0480719616314,0.998471202197,-0.0480719616314,-0.00082496789996,-0.019530690719
4700000000.0,-0.000866984409625,-0.0199563313103,0.998410815191,-0.0491203735333,0.998410815191,-0.0491203735333,-0.000866984409625,-0.0199563313103
4800000000.0,-0.000909905197995,-0.0203819876401,0.998349131976,-0.0501689275757,0.998349131976,-0.0501689275757,-0.000909905197995,-0.0203819876401
4900000000.0,-0.000953730632514,-0.0208076570181,0.998286151808,-0.0512176225626,0.998286151808,-0.0512176225626,-0.000953730632515,-0.0208076570181
5000000000.0,-0.000998461073339,-0.0212333367091,0.998221873955,-0.05226645724,0.998221873955,-0.05226645724,-0.000998461073339,-0.0212333367091
5100000000.0,-0.00104409687291,-0.0216590239347,0.998156297689,-0.0533154302983,0.998156297689,-0.0533154302983,-0.00104409687291,-0.0216590239347
5200000000.0,-0.00109063837558,-0.0220847158743,0.998089422294,-0.0543645403739,0.998089422294,-0.0543645403739,-0.00109063837558,-0.0220847158743
5300000000.0,-0.00113808591724,-0.0225104096672,0.99802124706,-0.0554137860514,0.99802124706,-0.0554137860514,-0.00113808591724,-0.0225104096672
5400000000.0,-0.00118643982497,-0.0229361024133,0.997951771288,-0.0564631658648,0.997951771288,-0.0564631658648,-0.00118643982497,-0.0229361024133
5500000000.0,-0.00123570041673,-0.0233617911749,0.997880994285,-0.0575126782994,0.997880994285,-0.0575126782994,-0.00123570041673,-0.0233617911749
5600000000.0,-0.00128586800105,-0.0237874729775,0.997808915368,-0.0585623217934,0.997808915368,-0.0585623217934,-0.00128586800105,-0.0237874729775
5700000000.0,-0.00133694287672,-0.0242131448114,0.997735533863,-0.0596120947396,0.997735533863,-0.0596120947396,-0.00133694287672,-0.0242131448114
5800000000.0,-0.00138892533256,-0.0246388036326,0.997660849105,-0.0606619954865,0.997660849105,-0.0606619954865,-0.00138892533256,-0.0246388036326
5900000000.0,-0.00144181564714,-0.0250644463641,0.997584860438,-0.0617120223401,0.997584860438,-0.0617120223401,-0.00144181564714,-0.0250644463641
6000000000.0,-0.00149561408853,-0.0254900698968,0.997507567214,-0.062762173565,0.997507567214,-0.062762173565,-0.00149561408853,-0.0254900698968
6100000000.0,-0.00155032091407,-0.0259156710907,0.997428968795,-0.0638124473858,0.997428968795,-0.0638124473858,-0.00155032091407,-0.0259156710907
6200000000.0,-0.00160593637019,-0.026341246776,0.997349064553,-0.0648628419886,0.997349064553,-0.0648628419886,-0.00160593637019,-0.026341246776
6300000000.0,-0.00166246069215,-0.0267667937537,0.997267853868,-0.065913355522,0.997267853868,-0.065913355522,-0.00166246069215,-0.0267667937537
6400000000.0,-0.00171989410386,-0.0271923087971,0.997185336131,-0.066963986098,0.997185336131,-0.066963986098,-0.00171989410386,-0.0271923087971
6500000000.0,-0.00177823681772,-0.0276177886522,0.997101510741,-0.0680147317941,0.997101510741,-0.0680147317941,-0.00177823681772,-0.0276177886522
6600000000.0,-0.00183748903442,-0.0280432300389,0.997016377108,-0.0690655906534,0.997016377108,-0.0690655906534,-0.00183748903442,-0.0280432300389
6700000000.0,-0.00189765094276,-0.0284686296518,0.996929934651,-0.0701165606861,0.996929934651,-0.0701165606861,-0.00189765094276,-0.0284686296518
6800000000.0,-0.00195872271953,-0.0288939841611,0.996842182798,-0.0711676398708,0.996842182798,-0.0711676398708,-0.00195872271953,-0.0288939841611
6900000000.0,-0.00202070452931,-0.0293192902131,0.996753120989,-0.072218826155,0.996753120989,-0.072218826155,-0.00202070452931,-0.0293192902131
7000000000.0,-0.00208359652435,-0.0297445444315,0.996662748673,-0.0732701174563,0.996662748673,-0.0732701174563,-0.00208359652435,-0.0297445444315
7100000000.0,-0.00214739884445,-0.0301697434177,0.996571065308,-0.0743215116636,0.996571065308,-0.0743215116636,-0.00214739884445,-0.0301697434177
7200000000.0,-0.00221211161679,-0.0305948837518,0.996478070363,-0.0753730066377,0.996478070363,-0.0753730066377,-0.00221211161679,-0.0305948837518
7300000000.0,-0.00227773495583,-0.0310199619932,0.996383763318,-0.0764246002121,0.996383763318,-0.0764246002121,-0.00227773495583,-0.0310199619932
7400000000.0,-0.00234426896318,-0.0314449746814,0.996288143662,-0.0774762901942,0.996288143662,-0.0774762901942,-0.00234426896318,-0.0314449746814
7500000000.0,-0.00241171372751,-0.0318699183366,0.996191210895,-0.0785280743661,0.996191210895,-0.0785280743661,-0.00241171372751,-0.0318699183366
7600000000.0,-0.00248006932441,-0.0322947894602,0.996092964527,-0.0795799504848,0.996092964527,-0.0795799504848,-0.00248006932441,-0.0322947894602
7700000000.0,-0.0025493358163,-0.032719584536,0.995993404079,-0.0806319162841,0.995993404079,-0.0806319162841,-0.0025493358163,-0.032719584536
7800000000.0,-0.00261951325235,-0.0331443000301,0.995892529082,-0.0816839694742,0.995892529082,-0.0816839694742,-0.00261951325235,-0.0331443000301
7900000000.0,-0.00269060166836,-0.033568932392,0.995790339078,-0.0827361077432,0.995790339078,-0.0827361077432,-0.00269060166836,-0.033568932392
8000000000.0,-0.00276260108668,-0.0339934780549,0.99568683362,-0.0837883287576,0.99568683362,-0.0837883287576,-0.00276260108668,-0.0339934780549
8100000000.0,-0.00283551151615,-0.0344179334366,0.99558201227,-0.0848406301629,0.99558201227,-0.0848406301629,-0.00283551151615,-0.0344179334366
8200000000.0,-0.00290933295198,-0.0348422949396,0.995475874602,-0.0858930095844,0.995475874602,-0.0858930095844,-0.00290933295198,-0.0348422949396
8300000000.0,-0.00298406537571,-0.0352665589521,0.995368420202,-0.0869454646277,0.995368420202,-0.0869454646277,-0.00298406537571,-0.0352665589521
8400000000.0,-0.00305970875511,-0.0356907218483,0.995259648664,-0.0879979928797,0.995259648664,-0.0879979928797,-0.00305970875511,-0.0356907218483
8500000000.0,-0.00313626304413,-0.0361147799888,0.995149559596,-0.0890505919086,0.995149559596,-0.0890505919086,-0.00313626304413,-0.0361147799888
8600000000.0,-0.00321372818283,-0.0365387297214,0.995038152615,-0.0901032592652,0.995038152615,-0.0901032592652,-0.00321372818283,-0.0365387297214
8700000000.0,-0.00329210409732,-0.0369625673812,0.994925427348,-0.0911559924829,0.994925427348,-0.0911559924829,-0.00329210409732,-0.0369625673812
8800000000.0,-0.00337139069969,-0.0373862892914,0.994811383436,-0.0922087890788,0.994811383436,-0.0922087890788,-0.00337139069969,-0.0373862892914
8900000000.0,-0.00345158788797,-0.0378098917637,0.994696020529,-0.0932616465537,0.994696020529,-0.0932616465537,-0.00345158788797,-0.0378098917637
9000000000.0,-0.00353269554607,-0.0382333710986,0.994579338288,-0.0943145623932,0.994579338288,-0.0943145623932,-0.00353269554607,-0.0382333710986
9100000000.0,-0.00361471354373,-0.038656723586,0.994461336386,-0.0953675340676,0.994461336386,-0.0953675340676,-0.00361471354373,-0.038656723586
9200000000.0,-0.00369764173648,-0.0390799455055,0.994342014507,-0.096420559033,0.994342014507,-0.096420559033,-0.00369764173648,-0.0390799455055
9300000000.0,-0.00378147996559,-0.0395030331268,0.994221372345,-0.0974736347314,0.994221372345,-0.0974736347314,-0.00378147996559,-0.0395030331268
9400000000.0,-0.00386622805803,-0.0399259827103,0.994099409608,-0.0985267585915,0.994099409608,-0.0985267585915,-0.00386622805803,-0.0399259827103
9500000000.0,-0.00395188582641,-0.0403487905074,0.993976126013,-0.0995799280289,0.993976126013,-0.0995799280289,-0.00395188582641,-0.0403487905074
9600000000.0,-0.00403845306901,-0.0407714527605,0.993851521287,-0.100633140446,0.993851521287,-0.100633140446,-0.00403845306901,-0.0407714527605
9700000000.0,-0.00412592956964,-0.0411939657042,0.993725595172,-0.101686393235,0.993725595172,-0.101686393235,-0.00412592956964,-0.0411939657042
9800000000.0,-0.00421431509771,-0.0416163255649,0.993598347418,-0.102739683774,0.993598347418,-0.102739683774,-0.00421431509771,-0.0416163255649
9900000000.0,-0.00430360940814,-0.0420385285615,0.993469777789,-0.103793009432,0.993469777789,-0.103793009432,-0.00430360940814,-0.0420385285615
10000000000.0,-0.00439381224135,-0.0424605709057,0.993339886057,-0.104846367565,0.993339886057,-0.104846367565,-0.00439381224135,-0.0424605709057
