freq (GHz),S11_real,S11_imag,S21_real,S21_imag,S12_real,S12_imag,S22_real,S22_imag
100000000.0,4.33620629425e-05,1.97001166098e-05,0.999955606123,-5.30117061997e-05,0.999955606123,-5.30117061997e-05,4.33620629425e-05,1.97001166098e-05
200000000.0,4.36426246393e-05,3.94002123814e-05,0.999955292634,-0.000106024007101,0.999955292634,-0.000106024007101,4.36426246395e-05,3.94002123814e-05
300000000.0,4.38478238092e-05,5.91003107854e-05,0.999955053399,-0.000159037256594,0.999955053399,-0.000159037256594,4.38478238087e-05,5.91003107854e-05
400000000.0,4.40157519939e-05,7.88004334794e-05,0.999954850322,-0.000212051714502,0.999954850322,-0.000212051714502,4.40157519939e-05,7.88004334793e-05
500000000.0,4.41610771595e-05,9.85005983571e-05,0.999954668737,-0.000265067603478,0.999954668737,-0.000265067603478,4.41610771595e-05,9.85005983571e-05
600000000.0,4.42912774694e-05,0.000118200822504,0.999954501164,-0.000318085122125,0.999954501164,-0.000318085122125,4.42912774696e-05,0.000118200822504
700000000.0,4.44107688717e-05,0.000137901124404,0.999954343188,-0.000371104450496,0.999954343188,-0.000371104450496,4.44107688717e-05,0.000137901124404
800000000.0,4.45224114882e-05,0.000157601524169,0.999954191948,-0.000424125754307,0.999954191948,-0.000424125754307,4.45224114887e-05,0.000157601524169
900000000.0,4.46281801603e-05,0.000177302040449,0.999954045469,-0.000477149190873,0.999954045469,-0.000477149190873,4.46281801598e-05,0.000177302040449
1000000000.0,4.47295038346e-05,0.000197002695987,0.999953902321,-0.000530174905504,0.999953902321,-0.000530174905504,4.47295038344e-05,0.000197002695987
1100000000.0,4.4827454422e-05,0.000216703512352,0.999953761432,-0.000583203038193,0.999953761432,-0.000583203038193,4.4827454422e-05,0.000216703512352
1200000000.0,4.49228595927e-05,0.000236404513654,0.999953621974,-0.000636233720955,0.999953621974,-0.000636233720955,4.49228595927e-05,0.000236404513654
1300000000.0,4.50163731809e-05,0.000256105723869,0.999953483292,-0.000689267081332,0.999953483292,-0.000689267081332,4.50163731809e-05,0.000256105723869
1400000000.0,4.51085219055e-05,0.000275807169046,0.99995334486,-0.000742303240825,0.99995334486,-0.000742303240825,4.5108521906e-05,0.000275807169046
1500000000.0,4.51997370083e-05,0.000295508874817,0.999953206246,-0.000795342317917,0.999953206246,-0.000795342317917,4.51997370083e-05,0.000295508874817
1600000000.0,4.52903763586e-05,0.000315210869058,0.999953067092,-0.000848384425841,0.999953067092,-0.000848384425841,4.52903763584e-05,0.000315210869058
1700000000.0,4.53807406553e-05,0.000334913181083,0.999952927096,-0.000901429673747,0.999952927096,-0.000901429673747,4.53807406553e-05,0.000334913181083
1800000000.0,4.54710851732e-05,0.000354615839067,0.999952786003,-0.000954478169576,0.999952786003,-0.000954478169576,4.54710851732e-05,0.000354615839067
1900000000.0,4.5561628599e-05,0.000374318874039,0.999952643593,-0.00100753001633,0.999952643593,-0.00100753001633,4.55616285988e-05,0.000374318874039
2000000000.0,4.56525598158e-05,0.000394022317175,0.999952499678,-0.001060585315,0.999952499678,-0.001060585315,4.5652559816e-05,0.000394022317175
2100000000.0,4.57440432102e-05,0.000413726200412,0.999952354093,-0.00111364416414,0.999952354093,-0.00111364416414,4.57440432104e-05,0.000413726200412
2200000000.0,4.58362227218e-05,0.000433430556676,0.999952206693,-0.00116670665981,0.999952206693,-0.00116670665981,4.58362227218e-05,0.000433430556676
2300000000.0,4.59292251507e-05,0.000453135420097,0.99995205735,-0.00121977289551,0.99995205735,-0.00121977289551,4.59292251507e-05,0.000453135420097
2400000000.0,4.60231628092e-05,0.000472840825389,0.999951905953,-0.00127284296292,0.999951905953,-0.00127284296292,4.60231628092e-05,0.000472840825389
2500000000.0,4.6118135693e-05,0.000492546807716,0.999951752401,-0.00132591695216,0.999951752401,-0.00132591695216,4.61181356926e-05,0.000492546807717
2600000000.0,4.62142331636e-05,0.000512253403403,0.999951596603,-0.00137899495118,0.999951596603,-0.00137899495118,4.62142331636e-05,0.000512253403403
2700000000.0,4.63115354701e-05,0.000531960649708,0.99995143848,-0.00143207704606,0.99995143848,-0.00143207704606,4.63115354701e-05,0.000531960649708
2800000000.0,4.64101149331e-05,0.000551668584076,0.999951277958,-0.00148516332187,0.999951277958,-0.00148516332187,4.64101149333e-05,0.000551668584076
2900000000.0,4.65100369391e-05,0.000571377245595,0.999951114972,-0.00153825386129,0.999951114972,-0.00153825386129,4.65100369389e-05,0.000571377245595
3000000000.0,4.66113608388e-05,0.000591086672736,0.999950949462,-0.00159134874688,0.999950949462,-0.00159134874688,4.66113608386e-05,0.000591086672736
3100000000.0,4.67141406213e-05,0.000610796906194,0.999950781373,-0.00164444805838,0.999950781373,-0.00164444805838,4.67141406211e-05,0.000610796906194
3200000000.0,4.68184255784e-05,0.000630507986175,0.999950610656,-0.00169755187543,0.999950610656,-0.00169755187543,4.68184255777e-05,0.000630507986175
3300000000.0,4.69242608003e-05,0.00065021995418,0.999950437265,-0.00175066027585,0.999950437265,-0.00175066027585,4.69242608001e-05,0.00065021995418
3400000000.0,4.70316876648e-05,0.000669932852464,0.999950261158,-0.0018037733362,0.999950261158,-0.0018037733362,4.70316876648e-05,0.000669932852464
3500000000.0,4.71407442251e-05,0.000689646723263,0.999950082297,-0.00185689113267,0.999950082297,-0.00185689113267,4.71407442248e-05,0.000689646723263
3600000000.0,4.72514655261e-05,0.000709361610392,0.999949900646,-0.00191001373943,0.999949900646,-0.00191001373943,4.72514655261e-05,0.000709361610392
3700000000.0,4.7363883966e-05,0.000729077557354,0.999949716172,-0.00196314123063,0.999949716172,-0.00196314123063,4.73638839662e-05,0.000729077557354
3800000000.0,4.74780295081e-05,0.000748794608923,0.999949528846,-0.00201627367881,0.999949528846,-0.00201627367881,4.74780295081e-05,0.000748794608923
3900000000.0,4.75939299269e-05,0.000768512810339,0.999949338638,-0.00206941115573,0.999949338638,-0.00206941115573,4.75939299269e-05,0.000768512810339
4000000000.0,4.77116110253e-05,0.00078823220722,0.999949145523,-0.00212255373254,0.999949145523,-0.00212255373254,4.77116110256e-05,0.00078823220722
4100000000.0,4.78310968117e-05,0.000807952846054,0.999948949475,-0.00217570147926,0.999948949475,-0.00217570147926,4.78310968119e-05,0.000807952846054
4200000000.0,4.79524096577e-05,0.000827674773661,0.999948750473,-0.00222885446536,0.999948750473,-0.00222885446536,4.79524096575e-05,0.000827674773661
4300000000.0,4.80755704453e-05,0.000847398037685,0.999948548495,-0.00228201275928,0.999948548495,-0.00228201275928,4.80755704455e-05,0.000847398037685
4400000000.0,4.82005986859e-05,0.000867122686146,0.999948343521,-0.00233517642895,0.999948343521,-0.00233517642895,4.82005986857e-05,0.000867122686146
4500000000.0,4.83275126588e-05,0.000886848767581,0.999948135531,-0.00238834554159,0.999948135531,-0.00238834554159,4.83275126588e-05,0.000886848767581
4600000000.0,4.84563294907e-05,0.000906576331232,0.999947924509,-0.00244152016361,0.999947924509,-0.00244152016361,4.84563294909e-05,0.000906576331232
4700000000.0,4.85870652631e-05,0.00092630542657,0.999947710439,-0.00249470036107,0.999947710439,-0.00249470036107,4.85870652631e-05,0.00092630542657
4800000000.0,4.87197350894e-05,0.000946036103929,0.999947493303,-0.00254788619906,0.999947493303,-0.00254788619906,4.87197350889e-05,0.000946036103929
4900000000.0,4.88543531856e-05,0.000965768414088,0.999947273089,-0.00260107774214,0.999947273089,-0.00260107774214,4.88543531856e-05,0.000965768414088
5000000000.0,4.8990932968e-05,0.000985502408029,0.999947049781,-0.00265427505461,0.999947049781,-0.00265427505461,4.8990932968e-05,0.000985502408029
5100000000.0,4.91294870726e-05,0.00100523813747,0.999946823367,-0.00270747819998,0.999946823367,-0.00270747819998,4.91294870724e-05,0.00100523813747
5200000000.0,4.92700274408e-05,0.00102497565474,0.999946593835,-0.00276068724108,0.999946593835,-0.00276068724108,4.92700274408e-05,0.00102497565474
5300000000.0,4.94125653729e-05,0.00104471501247,0.999946361172,-0.00281390224043,0.999946361172,-0.00281390224043,4.94125653732e-05,0.00104471501247
5400000000.0,4.95571115566e-05,0.00106445626353,0.999946125368,-0.00286712326029,0.999946125368,-0.00286712326029,4.95571115566e-05,0.00106445626353
5500000000.0,4.97036761204e-05,0.00108419946181,0.999945886411,-0.00292035036189,0.999945886411,-0.00292035036189,4.97036761204e-05,0.00108419946181
5600000000.0,4.98522686823e-05,0.00110394466105,0.999945644293,-0.00297358360659,0.999945644293,-0.00297358360659,4.98522686823e-05,0.00110394466105
5700000000.0,5.00028983652e-05,0.00112369191604,0.999945399003,-0.00302682305475,0.999945399003,-0.00302682305475,5.0002898365e-05,0.00112369191604
5800000000.0,5.01555738526e-05,0.00114344128142,0.999945150532,-0.00308006876685,0.999945150532,-0.00308006876685,5.01555738526e-05,0.00114344128142
5900000000.0,5.03103034013e-05,0.00116319281271,0.999944898872,-0.00313332080257,0.999944898872,-0.00313332080257,5.03103034013e-05,0.00116319281271
6000000000.0,5.04670948787e-05,0.00118294656572,0.999944644014,-0.00318657922129,0.999944644014,-0.00318657922129,5.04670948789e-05,0.00118294656572
6100000000.0,5.06259557917e-05,0.0012027025965,0.99994438595,-0.00323984408223,0.99994438595,-0.00323984408223,5.0625955792e-05,0.0012027025965
6200000000.0,5.07868933024e-05,0.00122246096183,0.999944124672,-0.00329311544389,0.999944124672,-0.00329311544389,5.07868933024e-05,0.00122246096183
6300000000.0,5.09499142507e-05,0.00124222171872,0.999943860174,-0.00334639336462,0.999943860174,-0.00334639336462,5.09499142509e-05,0.00124222171872
6400000000.0,5.11150251887e-05,0.00126198492453,0.999943592449,-0.00339967790248,0.999943592449,-0.00339967790248,5.11150251887e-05,0.00126198492453
6500000000.0,5.12822323797e-05,0.00128175063715,0.999943321489,-0.00345296911507,0.999943321489,-0.00345296911507,5.12822323797e-05,0.00128175063715
6600000000.0,5.14515418317e-05,0.00130151891478,0.999943047289,-0.00350626705976,0.999943047289,-0.00350626705976,5.14515418317e-05,0.00130151891478
6700000000.0,5.16229593064e-05,0.00132128981602,0.999942769841,-0.00355957179357,0.999942769841,-0.00355957179357,5.16229593064e-05,0.00132128981602
6800000000.0,5.17964903353e-05,0.00134106339994,0.999942489141,-0.00361288337317,0.999942489141,-0.00361288337317,5.17964903353e-05,0.00134106339994
6900000000.0,5.19721402374e-05,0.00136083972586,0.999942205182,-0.00366620185504,0.999942205182,-0.00366620185504,5.19721402374e-05,0.00136083972586
7000000000.0,5.21499141273e-05,0.00138061885351,0.999941917959,-0.00371952729538,0.999941917959,-0.00371952729538,5.21499141273e-05,0.00138061885351
7100000000.0,5.23298169317e-05,0.00140040084307,0.999941627467,-0.00377285975,0.999941627467,-0.00377285975,5.23298169317e-05,0.00140040084307
7200000000.0,5.25118533989e-05,0.00142018575493,0.9999413337,-0.00382619927462,0.9999413337,-0.00382619927462,5.25118533989e-05,0.00142018575493
7300000000.0,5.26960281135e-05,0.00143997365001,0.999941036653,-0.00387954592453,0.999941036653,-0.00387954592453,5.26960281138e-05,0.00143997365001
7400000000.0,5.28823454995e-05,0.00145976458943,0.999940736322,-0.00393289975493,0.999940736322,-0.00393289975493,5.28823454993e-05,0.00145976458943
7500000000.0,5.30708098347e-05,0.00147955863475,0.999940432702,-0.00398626082071,0.999940432702,-0.00398626082071,5.30708098345e-05,0.00147955863475
7600000000.0,5.32614252582e-05,0.00149935584786,0.999940125788,-0.0040396291765,0.999940125788,-0.0040396291765,5.3261425258e-05,0.00149935584786
7700000000.0,5.34541957822e-05,0.00151915629099,0.999939815576,-0.00409300487677,0.999939815576,-0.00409300487677,5.34541957822e-05,0.00151915629099
7800000000.0,5.36491252945e-05,0.00153896002662,0.999939502062,-0.00414638797582,0.999939502062,-0.00414638797582,5.36491252945e-05,0.00153896002662
7900000000.0,5.38462175665e-05,0.00155876711767,0.999939185241,-0.00419977852764,0.999939185241,-0.00419977852764,5.38462175665e-05,0.00155876711767
8000000000.0,5.4045476265e-05,0.00157857762738,0.99993886511,-0.00425317658605,0.99993886511,-0.00425317658605,5.4045476265e-05,0.00157857762738
8100000000.0,5.42469049551e-05,0.00159839161922,0.999938541664,-0.00430658220473,0.999938541664,-0.00430658220473,5.42469049551e-05,0.00159839161922
8200000000.0,5.44505071034e-05,0.00161820915717,0.9999382149,-0.00435999543701,0.9999382149,-0.00435999543701,5.4450507103e-05,0.00161820915717
8300000000.0,5.46562860897e-05,0.0016380303052,0.999937884814,-0.00441341633637,0.999937884814,-0.00441341633637,5.46562860897e-05,0.0016380303052
8400000000.0,5.48642452116e-05,0.00165785512796,0.999937551401,-0.00446684495573,0.999937551401,-0.00446684495573,5.48642452116e-05,0.00165785512796
8500000000.0,5.50743876828e-05,0.00167768369021,0.99993721466,-0.00452028134804,0.99993721466,-0.00452028134804,5.50743876828e-05,0.00167768369021
8600000000.0,5.52867166459e-05,0.001697516057,0.999936874586,-0.0045737255661,0.999936874586,-0.0045737255661,5.52867166463e-05,0.001697516057
8700000000.0,5.55012351766e-05,0.00171735229375,0.999936531175,-0.0046271776625,0.999936531175,-0.0046271776625,5.55012351766e-05,0.00171735229375
8800000000.0,5.57179462823e-05,0.00173719246613,0.999936184425,-0.00468063768968,0.999936184425,-0.00468063768968,5.57179462826e-05,0.00173719246613
8900000000.0,5.59368529087e-05,0.00175703664017,0.999935834331,-0.0047341056999,0.999935834331,-0.0047341056999,5.59368529085e-05,0.00175703664017
9000000000.0,5.61579579466e-05,0.00177688488209,0.999935480892,-0.00478758174538,0.999935480892,-0.00478758174538,5.61579579463e-05,0.00177688488209
9100000000.0,5.63812642311e-05,0.00179673725858,0.999935124103,-0.00484106587802,0.999935124103,-0.00484106587802,5.63812642311e-05,0.00179673725858
9200000000.0,5.66067745493e-05,0.00181659383639,0.999934763961,-0.00489455814975,0.999934763961,-0.00489455814975,5.66067745493e-05,0.00181659383639
9300000000.0,5.68344916427e-05,0.00183645468266,0.999934400464,-0.00494805861233,0.999934400464,-0.00494805861233,5.6834491643e-05,0.00183645468266
9400000000.0,5.70644182074e-05,0.00185631986476,0.999934033609,-0.0050015673174,0.999934033609,-0.0050015673174,5.7064418207e-05,0.00185631986476
9500000000.0,5.7296556895e-05,0.00187618945054,0.999933663391,-0.00505508431631,0.999933663391,-0.00505508431631,5.7296556895e-05,0.00187618945054
9600000000.0,5.75309103261e-05,0.00189606350785,0.999933289809,-0.00510860966053,0.999933289809,-0.00510860966053,5.75309103263e-05,0.00189606350785
9700000000.0,5.77674810844e-05,0.00191594210493,0.99993291286,-0.00516214340129,0.99993291286,-0.00516214340129,5.77674810842e-05,0.00191594210493
9800000000.0,5.80062717179e-05,0.00193582531029,0.99993253254,-0.00521568558973,0.99993253254,-0.00521568558973,5.80062717179e-05,0.00193582531029
9900000000.0,5.82472847477e-05,0.00195571319272,0.999932148847,-0.00526923627685,0.999932148847,-0.00526923627685,5.82472847477e-05,0.00195571319272
10000000000.0,5.8490522665e-05,0.00197560582118,0.999931761778,-0.00532279551363,0.999931761778,-0.00532279551363,5.8490522665e-05,0.00197560582118
